5.020000000 12216.9
5.040000000 12108.0
5.060000000 12148.1
5.080000000 12129.9
5.100000000 11975.7
5.120000000 11738.1
5.140000000 11750.6
5.160000000 11815.3
5.180000000 11817.8
5.200000000 11573.3
5.220000000 11602.0
5.240000000 11669.0
5.260000000 11694.0
5.280000000 11592.7
5.300000000 11720.9
5.320000000 11604.7
5.340000000 11435.7
5.360000000 11453.6
5.380000000 11496.3
5.400000000 11372.3
5.420000000 11234.1
5.440000000 11195.1
5.460000000 11276.6
5.480000000 11315.2
5.500000000 11295.5
5.520000000 11245.8
5.540000000 11354.7
5.560000000 11270.0
5.580000000 11331.5
5.600000000 11511.3
5.620000000 11436.7
5.640000000 11365.4
5.660000000 11320.2
5.680000000 11328.3
5.700000000 11434.2
5.720000000 11386.8
5.740000000 11278.0
5.760000000 11197.8
5.780000000 11243.6
5.800000000 11167.4
5.820000000 11282.7
5.840000000 11368.8
5.860000000 11272.8
5.880000000 11239.3
5.900000000 11275.2
5.920000000 11357.7
5.940000000 11446.1
5.960000000 11368.4
5.980000000 11303.1
6.000000000 11230.0
6.020000000 11200.5
6.040000000 11404.6
6.060000000 11398.7
6.080000000 11401.8
6.100000000 11439.9
6.120000000 11491.7
6.140000000 11482.2
6.160000000 11360.7
6.180000000 11263.0
6.200000000 11362.7
6.220000000 11600.0
6.240000000 11650.0
6.260000000 11635.2
6.280000000 11655.6
6.300000000 11648.7
6.320000000 11603.3
6.340000000 11578.9
6.360000000 11620.1
6.380000000 11814.3
6.400000000 11736.6
6.420000000 11683.9
6.440000000 11735.9
6.460000000 11841.0
6.480000000 11654.9
6.500000000 11684.9
6.520000000 11855.8
6.540000000 11809.4
6.560000000 11880.9
6.580000000 11944.8
6.600000000 11989.1
6.620000000 12012.7
6.640000000 12162.9
6.660000000 12089.0
6.680000000 12030.5
6.700000000 12191.1
6.720000000 12395.2
6.740000000 12348.6
6.760000000 12324.8
6.780000000 12432.5
6.800000000 12364.7
6.820000000 12541.1
6.840000000 12758.1
6.860000000 12940.3
6.880000000 13064.4
6.900000000 13274.9
6.920000000 13496.6
6.940000000 13683.1
6.960000000 13760.7
6.980000000 13922.4
7.000000000 14159.4
7.020000000 14378.1
7.040000000 14446.7
7.060000000 14686.2
7.080000000 14838.1
7.100000000 14921.3
7.120000000 14941.4
7.140000000 14490.5
7.160000000 14112.9
7.180000000 13827.1
7.200000000 13638.7
7.220000000 13508.5
7.240000000 13289.9
7.260000000 13084.0
7.280000000 12938.7
7.300000000 12899.8
7.320000000 12550.2
7.340000000 12425.2
7.360000000 12535.8
7.380000000 12628.7
7.400000000 12639.1
7.420000000 12500.2
7.440000000 12314.8
7.460000000 12250.8
7.480000000 12445.1
7.500000000 12492.9
7.520000000 12433.8
7.540000000 12333.0
7.560000000 12517.3
7.580000000 12485.1
7.600000000 12412.0
7.620000000 12403.4
7.640000000 12407.2
7.660000000 12352.1
7.680000000 12276.2
7.700000000 12232.5
7.720000000 12390.9
7.740000000 12365.4
7.760000000 12355.9
7.780000000 12366.6
7.800000000 12285.9
7.820000000 12429.2
7.840000000 12451.3
7.860000000 12374.0
7.880000000 12301.6
7.900000000 12392.2
7.920000000 12419.6
7.940000000 12440.5
7.960000000 12517.4
7.980000000 12408.4
8.000000000 12430.6
8.020000000 12415.3
8.040000000 12296.8
8.060000000 12541.3
8.080000000 12625.8
8.100000000 12612.1
8.120000000 12579.2
8.140000000 12785.6
8.160000000 12927.2
8.180000000 12924.8
8.200000000 12801.8
8.220000000 12679.9
8.240000000 12733.7
8.260000000 12820.8
8.280000000 12926.1
8.300000000 13057.1
8.320000000 12971.4
8.340000000 13134.5
8.360000000 13295.7
8.380000000 13160.3
8.400000000 13177.8
8.420000000 13285.8
8.440000000 13436.2
8.460000000 13569.1
8.480000000 13414.5
8.500000000 13453.6
8.520000000 13537.9
8.540000000 13611.0
8.560000000 13727.6
8.580000000 13718.5
8.600000000 13710.4
8.620000000 13747.7
8.640000000 13861.9
8.660000000 13879.7
8.680000000 13990.1
8.700000000 14140.5
8.720000000 14180.8
8.740000000 14229.1
8.760000000 14281.7
8.780000000 14361.5
8.800000000 14493.1
8.820000000 14507.6
8.840000000 14741.5
8.860000000 14890.5
8.880000000 14776.2
8.900000000 15087.0
8.920000000 15033.6
8.940000000 15080.1
8.960000000 15375.3
8.980000000 15493.3
9.000000000 15526.2
9.020000000 15467.9
9.040000000 15400.4
9.060000000 15596.9
9.080000000 15894.2
9.100000000 15987.9
9.120000000 15951.3
9.140000000 16028.2
9.160000000 16226.6
9.180000000 16382.1
9.200000000 16498.4
9.220000000 16595.9
9.240000000 16424.8
9.260000000 16548.1
9.280000000 16690.4
9.300000000 16657.1
9.320000000 16925.1
9.340000000 17189.2
9.360000000 17356.5
9.380000000 17383.0
9.400000000 17291.6
9.420000000 17420.4
9.440000000 17417.4
9.460000000 17338.2
9.480000000 17763.2
9.500000000 18052.5
9.520000000 18160.2
9.540000000 18186.1
9.560000000 18359.8
9.580000000 18351.5
9.600000000 18359.4
9.620000000 18466.3
9.640000000 18757.2
9.660000000 18975.8
9.680000000 19174.0
9.700000000 19271.2
9.720000000 19233.7
9.740000000 19656.4
9.760000000 19871.6
9.780000000 20130.9
9.800000000 20537.2
9.820000000 20850.2
9.840000000 21269.7
9.860000000 21766.0
9.880000000 22304.5
9.900000000 22791.9
9.920000000 23235.4
9.940000000 23817.2
9.960000000 24513.4
9.980000000 25189.7
10.000000000 26193.6
10.020000000 27153.3
10.040000000 28110.7
10.060000000 29173.9
10.080000000 30743.5
10.100000000 31753.1
10.120000000 32506.4
10.140000000 33238.3
10.160000000 32478.3
10.180000000 30451.2
10.200000000 27829.4
10.220000000 25038.0
10.240000000 22304.6
10.260000000 20168.2
10.280000000 18536.7
10.300000000 17367.4
10.320000000 16617.2
10.340000000 15868.3
10.360000000 15213.6
10.380000000 14657.4
10.400000000 14163.2
10.420000000 13622.3
10.440000000 13172.0
10.460000000 12889.7
10.480000000 12867.6
10.500000000 12531.1
10.520000000 12281.7
10.540000000 12106.0
10.560000000 11973.8
10.580000000 11765.9
10.600000000 11541.0
10.620000000 11308.8
10.640000000 11089.4
10.660000000 10999.6
10.680000000 10783.4
10.700000000 10729.4
10.720000000 10822.9
10.740000000 10509.2
10.760000000 10430.5
10.780000000 10422.9
10.800000000 10420.4
10.820000000 10348.9
10.840000000 10266.2
10.860000000 10141.0
10.880000000 10062.8
10.900000000 10180.9
10.920000000 9930.7
10.940000000 9846.9
10.960000000 9821.4
10.980000000 9725.9
11.000000000 9759.4
11.020000000 9698.9
11.040000000 9597.0
11.060000000 9497.4
11.080000000 9479.1
11.100000000 9447.3
11.120000000 9442.0
11.140000000 9466.1
11.160000000 9453.1
11.180000000 9388.7
11.200000000 9331.1
11.220000000 9305.5
11.240000000 9341.3
11.260000000 9316.3
11.280000000 9323.0
11.300000000 9289.0
11.320000000 9070.5
11.340000000 9069.7
11.360000000 9045.1
11.380000000 9052.8
11.400000000 9159.3
11.420000000 9006.2
11.440000000 9030.2
11.460000000 9066.7
11.480000000 9011.2
11.500000000 9000.5
11.520000000 8915.2
11.540000000 8953.5
11.560000000 9125.1
11.580000000 9025.3
11.600000000 8873.9
11.620000000 8757.1
11.640000000 8738.9
11.660000000 8943.0
11.680000000 8824.1
11.700000000 8762.1
11.720000000 8756.3
11.740000000 8703.7
11.760000000 8694.5
11.780000000 8738.9
11.800000000 8770.4
11.820000000 8713.8
11.840000000 8799.8
11.860000000 8631.4
11.880000000 8529.0
11.900000000 8701.8
11.920000000 8741.4
11.940000000 8753.3
11.960000000 8696.5
11.980000000 8601.9
12.000000000 8753.4
12.020000000 8672.6
12.040000000 8600.1
12.060000000 8596.5
12.080000000 8635.3
12.100000000 8524.9
12.120000000 8469.7
12.140000000 8495.1
12.160000000 8586.5
12.180000000 8341.5
12.200000000 8342.2
12.220000000 8445.1
12.240000000 8423.0
12.260000000 8443.6
12.280000000 8521.2
12.300000000 8574.9
12.320000000 8543.2
12.340000000 8482.3
12.360000000 8441.9
12.380000000 8394.1
12.400000000 8345.1
12.420000000 8419.8
12.440000000 8369.9
12.460000000 8425.7
12.480000000 8560.4
12.500000000 8437.0
12.520000000 8285.8
12.540000000 8242.9
12.560000000 8294.4
12.580000000 8361.4
12.600000000 8469.6
12.620000000 8473.4
12.640000000 8397.2
12.660000000 8289.8
12.680000000 8283.0
12.700000000 8349.8
12.720000000 8411.2
12.740000000 8402.3
12.760000000 8371.1
12.780000000 8395.1
12.800000000 8438.5
12.820000000 8465.6
12.840000000 8365.8
12.860000000 8305.7
12.880000000 8394.5
12.900000000 8578.4
12.920000000 8523.6
12.940000000 8554.1
12.960000000 8552.7
12.980000000 8510.1
13.000000000 8455.2
13.020000000 8443.3
13.040000000 8414.5
13.060000000 8418.5
13.080000000 8531.2
13.100000000 8370.4
13.120000000 8301.7
13.140000000 8317.7
13.160000000 8390.6
13.180000000 8248.2
13.200000000 8312.0
13.220000000 8380.6
13.240000000 8358.3
13.260000000 8399.5
13.280000000 8470.8
13.300000000 8465.6
13.320000000 8415.7
13.340000000 8600.0
13.360000000 8671.9
13.380000000 8591.0
13.400000000 8451.6
13.420000000 8498.0
13.440000000 8546.6
13.460000000 8534.9
13.480000000 8531.6
13.500000000 8648.1
13.520000000 8619.1
13.540000000 8636.8
13.560000000 8727.5
13.580000000 8891.8
13.600000000 8665.6
13.620000000 8865.2
13.640000000 9053.1
13.660000000 8991.3
13.680000000 8943.4
13.700000000 9110.4
13.720000000 9255.1
13.740000000 9304.8
13.760000000 9335.3
13.780000000 9611.6
13.800000000 9687.8
13.820000000 9641.2
13.840000000 9925.3
13.860000000 10087.2
13.880000000 10234.3
13.900000000 10356.3
13.920000000 10418.0
13.940000000 10756.5
13.960000000 11060.3
13.980000000 11370.6
14.000000000 11740.5
14.020000000 12153.3
14.040000000 12621.0
14.060000000 13149.0
14.080000000 13731.0
14.100000000 14283.2
14.120000000 14738.4
14.140000000 15404.9
14.160000000 16317.4
14.180000000 17048.6
14.200000000 17931.3
14.220000000 18956.6
14.240000000 20045.4
14.260000000 20987.5
14.280000000 21867.4
14.300000000 22895.1
14.320000000 23914.0
14.340000000 24613.9
14.360000000 24777.3
14.380000000 24716.4
14.400000000 24120.5
14.420000000 22664.7
14.440000000 20841.4
14.460000000 18800.3
14.480000000 16855.2
14.500000000 15242.3
14.520000000 14138.0
14.540000000 13118.4
14.560000000 12270.9
14.580000000 11632.8
14.600000000 11199.5
14.620000000 10842.4
14.640000000 10468.7
14.660000000 10106.6
14.680000000 9911.6
14.700000000 9668.6
14.720000000 9507.7
14.740000000 9394.1
14.760000000 9231.1
14.780000000 9055.9
14.800000000 8939.6
14.820000000 8846.3
14.840000000 8729.0
14.860000000 8550.1
14.880000000 8504.0
14.900000000 8448.6
14.920000000 8302.2
14.940000000 8360.0
14.960000000 8241.7
14.980000000 8119.9
15.000000000 8051.1
15.020000000 7901.0
15.040000000 7885.9
15.060000000 7878.7
15.080000000 7867.4
15.100000000 7926.0
15.120000000 7807.6
15.140000000 7780.2
15.160000000 7801.9
15.180000000 7711.3
15.200000000 7559.7
15.220000000 7583.4
15.240000000 7662.9
15.260000000 7633.7
15.280000000 7495.0
15.300000000 7522.9
15.320000000 7587.3
15.340000000 7585.0
15.360000000 7537.8
15.380000000 7456.3
15.400000000 7408.3
15.420000000 7418.5
15.440000000 7430.7
15.460000000 7443.5
15.480000000 7403.3
15.500000000 7337.6
15.520000000 7394.7
15.540000000 7408.6
15.560000000 7382.2
15.580000000 7295.7
15.600000000 7107.6
15.620000000 7159.0
15.640000000 7204.8
15.660000000 7232.4
15.680000000 7249.9
15.700000000 7377.2
15.720000000 7320.5
15.740000000 7208.1
15.760000000 7151.9
15.780000000 7150.4
15.800000000 7146.6
15.820000000 7133.2
15.840000000 7106.5
15.860000000 7067.7
15.880000000 7052.1
15.900000000 7130.9
15.920000000 7256.7
15.940000000 7169.8
15.960000000 7217.2
15.980000000 7197.7
16.000000000 7113.5
16.020000000 7052.6
16.040000000 7095.2
16.060000000 7068.0
16.080000000 7012.0
16.100000000 7005.1
16.120000000 7086.1
16.140000000 7004.4
16.160000000 6856.9
16.180000000 6745.6
16.200000000 6865.9
16.220000000 6803.0
16.240000000 6788.5
16.260000000 6910.2
16.280000000 6847.0
16.300000000 6850.9
16.320000000 6801.1
16.340000000 6695.5
16.360000000 6692.4
16.380000000 6662.7
16.400000000 6669.3
16.420000000 6760.5
16.440000000 7020.2
16.460000000 6728.0
16.480000000 6556.2
16.500000000 6528.1
16.520000000 6576.9
16.540000000 6695.6
16.560000000 6654.6
16.580000000 6628.2
16.600000000 6767.8
16.620000000 6604.8
16.640000000 6568.3
16.660000000 6569.4
16.680000000 6557.4
16.700000000 6561.2
16.720000000 6612.9
16.740000000 6620.3
16.760000000 6578.7
16.780000000 6614.5
16.800000000 6516.8
16.820000000 6493.3
16.840000000 6544.2
16.860000000 6554.1
16.880000000 6576.4
16.900000000 6493.6
16.920000000 6413.1
16.940000000 6523.5
16.960000000 6473.9
16.980000000 6491.5
17.000000000 6514.7
17.020000000 6477.0
17.040000000 6477.8
17.060000000 6472.5
17.080000000 6464.6
17.100000000 6448.9
17.120000000 6359.8
17.140000000 6399.8
17.160000000 6433.2
17.180000000 6404.7
17.200000000 6310.3
17.220000000 6361.4
17.240000000 6369.0
17.260000000 6304.1
17.280000000 6210.4
17.300000000 6244.1
17.320000000 6281.9
17.340000000 6312.3
17.360000000 6342.8
17.380000000 6290.6
17.400000000 6225.7
17.420000000 6239.3
17.440000000 6415.2
17.460000000 6377.9
17.480000000 6189.6
17.500000000 6082.5
17.520000000 6193.1
17.540000000 6279.1
17.560000000 6248.6
17.580000000 6223.4
17.600000000 6230.7
17.620000000 6144.6
17.640000000 6063.0
17.660000000 6133.0
17.680000000 6258.9
17.700000000 6052.5
17.720000000 6187.4
17.740000000 6270.8
17.760000000 6264.7
17.780000000 6199.2
17.800000000 6169.2
17.820000000 6126.4
17.840000000 6125.7
17.860000000 6226.5
17.880000000 6107.7
17.900000000 6020.3
17.920000000 5996.8
17.940000000 6054.9
17.960000000 6135.7
17.980000000 6155.6
18.000000000 6121.9
18.020000000 6066.4
18.040000000 6144.1
18.060000000 6094.2
18.080000000 6025.0
18.100000000 5976.7
18.120000000 5980.6
18.140000000 6015.9
18.160000000 6020.0
18.180000000 6011.8
18.200000000 6046.1
18.220000000 6021.4
18.240000000 6052.8
18.260000000 6055.5
18.280000000 5922.7
18.300000000 6081.1
18.320000000 6111.0
18.340000000 6079.9
18.360000000 6050.5
18.380000000 6135.0
18.400000000 6038.6
18.420000000 5951.0
18.440000000 5967.0
18.460000000 6094.2
18.480000000 6073.4
18.500000000 6040.7
18.520000000 6029.4
18.540000000 6015.7
18.560000000 6185.1
18.580000000 6231.7
18.600000000 6148.8
18.620000000 6026.9
18.640000000 6035.4
18.660000000 6001.3
18.680000000 5999.0
18.700000000 6138.4
18.720000000 6009.3
18.740000000 6047.0
18.760000000 6136.0
18.780000000 6169.3
18.800000000 6032.9
18.820000000 5965.2
18.840000000 5977.4
18.860000000 6057.2
18.880000000 6084.6
18.900000000 6118.2
18.920000000 6146.5
18.940000000 6147.7
18.960000000 6056.3
18.980000000 6052.6
19.000000000 6097.0
19.020000000 6127.0
19.040000000 6022.7
19.060000000 6031.9
19.080000000 6018.9
19.100000000 5996.5
19.120000000 5998.0
19.140000000 6119.8
19.160000000 6194.4
19.180000000 6168.7
19.200000000 6015.5
19.220000000 6026.2
19.240000000 6074.9
19.260000000 6095.6
19.280000000 6083.9
19.300000000 6275.0
19.320000000 6201.8
19.340000000 6171.3
19.360000000 6223.7
19.380000000 6104.1
19.400000000 6220.8
19.420000000 6285.4
19.440000000 6243.6
19.460000000 6103.5
19.480000000 6178.0
19.500000000 6239.0
19.520000000 6298.1
19.540000000 6404.7
19.560000000 6371.2
19.580000000 6345.3
19.600000000 6338.7
19.620000000 6354.8
19.640000000 6299.2
19.660000000 6338.2
19.680000000 6411.0
19.700000000 6472.3
19.720000000 6455.6
19.740000000 6453.8
19.760000000 6506.7
19.780000000 6597.3
19.800000000 6592.7
19.820000000 6617.9
19.840000000 6584.3
19.860000000 6563.6
19.880000000 6782.2
19.900000000 6799.2
19.920000000 6832.5
19.940000000 6899.0
19.960000000 6987.4
19.980000000 7014.4
20.000000000 7077.6
20.020000000 7106.8
20.040000000 7037.6
20.060000000 7088.6
20.080000000 7218.4
20.100000000 7378.8
20.120000000 7534.3
20.140000000 7645.5
20.160000000 7765.0
20.180000000 7899.9
20.200000000 8032.8
20.220000000 8070.9
20.240000000 8334.2
20.260000000 8600.6
20.280000000 8826.3
20.300000000 9033.5
20.320000000 9349.8
20.340000000 9707.1
20.360000000 10127.4
20.380000000 10659.7
20.400000000 11034.6
20.420000000 11597.4
20.440000000 12189.6
20.460000000 12634.4
20.480000000 13175.1
20.500000000 13633.7
20.520000000 13872.2
20.540000000 13815.2
20.560000000 13627.1
20.580000000 12935.4
20.600000000 12254.5
20.620000000 11735.0
20.640000000 11044.3
20.660000000 10610.0
20.680000000 10142.4
20.700000000 9615.3
20.720000000 9164.4
20.740000000 8899.1
20.760000000 8696.4
20.780000000 8523.3
20.800000000 8352.0
20.820000000 8049.9
20.840000000 7824.9
20.860000000 7690.0
20.880000000 7644.2
20.900000000 7589.4
20.920000000 7498.7
20.940000000 7429.6
20.960000000 7409.4
20.980000000 7281.4
21.000000000 7259.7
21.020000000 7259.5
21.040000000 7226.6
21.060000000 7076.5
21.080000000 7126.5
21.100000000 7151.8
21.120000000 7105.6
21.140000000 7032.5
21.160000000 7057.0
21.180000000 7071.7
21.200000000 7084.2
21.220000000 7139.0
21.240000000 7087.3
21.260000000 7079.0
21.280000000 7114.1
21.300000000 7180.6
21.320000000 7282.7
21.340000000 7266.0
21.360000000 7263.8
21.380000000 7372.7
21.400000000 7502.1
21.420000000 7573.0
21.440000000 7737.3
21.460000000 8008.3
21.480000000 8034.2
21.500000000 8062.6
21.520000000 8152.7
21.540000000 8304.6
21.560000000 8461.5
21.580000000 8707.8
21.600000000 8897.7
21.620000000 8997.3
21.640000000 8986.7
21.660000000 9249.9
21.680000000 9333.7
21.700000000 9274.5
21.720000000 9163.3
21.740000000 9039.2
21.760000000 8780.5
21.780000000 8442.9
21.800000000 8074.5
21.820000000 7673.2
21.840000000 7346.2
21.860000000 7088.7
21.880000000 6893.9
21.900000000 6734.0
21.920000000 6442.0
21.940000000 6244.9
21.960000000 6183.0
21.980000000 6144.2
22.000000000 6040.6
22.020000000 5911.9
22.040000000 5805.9
22.060000000 5809.7
22.080000000 5764.8
22.100000000 5770.4
22.120000000 5771.8
22.140000000 5684.9
22.160000000 5631.3
22.180000000 5553.2
22.200000000 5510.1
22.220000000 5539.8
22.240000000 5396.7
22.260000000 5332.6
22.280000000 5374.0
22.300000000 5481.7
22.320000000 5280.6
22.340000000 5245.5
22.360000000 5255.3
22.380000000 5251.9
22.400000000 5169.6
22.420000000 5215.6
22.440000000 5176.6
22.460000000 5102.9
22.480000000 5205.7
22.500000000 5047.3
22.520000000 5052.7
22.540000000 5134.6
22.560000000 5109.5
22.580000000 5135.1
22.600000000 5102.3
22.620000000 5077.1
22.640000000 5112.1
22.660000000 4971.3
22.680000000 5082.8
22.700000000 5242.6
22.720000000 5313.1
22.740000000 5167.6
22.760000000 5196.5
22.780000000 5185.2
22.800000000 5109.1
22.820000000 5189.0
22.840000000 5206.2
22.860000000 5188.1
22.880000000 5150.7
22.900000000 5117.9
22.920000000 5080.3
22.940000000 5010.3
22.960000000 4956.9
22.980000000 4998.8
23.000000000 5102.2
23.020000000 5015.0
23.040000000 4911.7
23.060000000 4960.4
23.080000000 4851.5
23.100000000 4824.8
23.120000000 4862.7
23.140000000 4931.6
23.160000000 4842.5
23.180000000 4781.4
23.200000000 4803.2
23.220000000 4873.4
23.240000000 4740.1
23.260000000 4688.2
23.280000000 4720.5
23.300000000 4787.8
23.320000000 4758.8
23.340000000 4646.0
23.360000000 4628.3
23.380000000 4672.0
23.400000000 4686.5
23.420000000 4647.4
23.440000000 4636.0
23.460000000 4591.4
23.480000000 4457.4
23.500000000 4596.0
23.520000000 4630.0
23.540000000 4618.0
23.560000000 4595.6
23.580000000 4521.0
23.600000000 4592.8
23.620000000 4626.3
23.640000000 4581.7
23.660000000 4641.1
23.680000000 4540.6
23.700000000 4467.9
23.720000000 4461.3
23.740000000 4496.3
23.760000000 4525.9
23.780000000 4529.1
23.800000000 4541.7
23.820000000 4630.0
23.840000000 4478.3
23.860000000 4483.6
23.880000000 4527.9
23.900000000 4463.5
23.920000000 4554.1
23.940000000 4585.3
23.960000000 4592.6
23.980000000 4610.1
24.000000000 4728.1
24.020000000 4760.7
24.040000000 4790.8
24.060000000 4865.0
24.080000000 5031.8
24.100000000 5263.3
24.120000000 5507.0
24.140000000 5679.9
24.160000000 5574.1
24.180000000 5382.5
24.200000000 5112.3
24.220000000 4838.4
24.240000000 4697.5
24.260000000 4540.7
24.280000000 4473.8
24.300000000 4432.5
24.320000000 4334.8
24.340000000 4315.0
24.360000000 4331.8
24.380000000 4343.6
24.400000000 4328.9
24.420000000 4414.2
24.440000000 4349.3
24.460000000 4292.7
24.480000000 4310.4
24.500000000 4344.7
24.520000000 4371.5
24.540000000 4379.4
24.560000000 4347.0
24.580000000 4216.1
24.600000000 4197.3
24.620000000 4202.4
24.640000000 4205.1
24.660000000 4181.5
24.680000000 4232.9
24.700000000 4252.6
24.720000000 4214.1
24.740000000 4096.1
24.760000000 4206.4
24.780000000 4246.2
24.800000000 4267.8
24.820000000 4308.6
24.840000000 4285.8
24.860000000 4201.5
24.880000000 4143.7
24.900000000 4150.6
24.920000000 4180.3
24.940000000 4200.2
24.960000000 4212.0
24.980000000 4202.7
25.000000000 4124.3
25.020000000 4204.0
25.040000000 4212.7
25.060000000 4144.8
25.080000000 4074.0
25.100000000 4108.0
25.120000000 4148.0
25.140000000 4196.5
25.160000000 4267.3
25.180000000 4128.4
25.200000000 4106.2
25.220000000 4126.1
25.240000000 4119.6
25.260000000 4092.2
25.280000000 4127.2
25.300000000 4177.8
25.320000000 4217.4
25.340000000 4238.7
25.360000000 4201.6
25.380000000 4214.7
25.400000000 4267.9
25.420000000 4186.4
25.440000000 4126.5
25.460000000 4170.6
25.480000000 4260.3
25.500000000 4227.6
25.520000000 4264.3
25.540000000 4257.8
25.560000000 4211.0
25.580000000 4143.2
25.600000000 4164.4
25.620000000 4147.5
25.640000000 4133.8
25.660000000 4158.0
25.680000000 4112.3
25.700000000 4092.2
25.720000000 4110.1
25.740000000 4160.5
25.760000000 4146.0
25.780000000 4090.0
25.800000000 4043.3
25.820000000 4016.8
25.840000000 3979.5
25.860000000 3998.7
25.880000000 3989.0
25.900000000 3971.0
25.920000000 4037.2
25.940000000 4075.0
25.960000000 4086.3
25.980000000 4088.0
26.000000000 4105.5
26.020000000 3946.5
26.040000000 4010.8
26.060000000 4118.1
26.080000000 4085.1
26.100000000 4001.3
26.120000000 4033.0
26.140000000 4049.0
26.160000000 3987.6
26.180000000 4015.0
26.200000000 3990.0
26.220000000 3976.2
26.240000000 3991.9
26.260000000 4010.1
26.280000000 3968.0
26.300000000 3955.9
26.320000000 3984.9
26.340000000 4030.6
26.360000000 4066.7
26.380000000 4006.7
26.400000000 3940.4
26.420000000 4028.0
26.440000000 4074.4
26.460000000 3969.8
26.480000000 3905.6
26.500000000 4070.7
26.520000000 4058.5
26.540000000 4004.5
26.560000000 3998.6
26.580000000 4072.2
26.600000000 3960.3
26.620000000 4050.6
26.640000000 4075.8
26.660000000 3964.6
26.680000000 3901.4
26.700000000 3940.0
26.720000000 3929.8
26.740000000 3885.9
26.760000000 3952.1
26.780000000 3968.6
26.800000000 3973.0
26.820000000 3984.5
26.840000000 4027.2
26.860000000 3892.0
26.880000000 3900.8
26.900000000 3959.7
26.920000000 3950.1
26.940000000 3957.8
26.960000000 3979.3
26.980000000 3969.1
27.000000000 3899.9
27.020000000 3823.0
27.040000000 3804.4
27.060000000 3829.5
27.080000000 3877.5
27.100000000 3873.7
27.120000000 3965.6
27.140000000 4003.2
27.160000000 3968.1
27.180000000 3924.0
27.200000000 3965.0
27.220000000 3987.9
27.240000000 3981.0
27.260000000 3950.6
27.280000000 4057.4
27.300000000 4071.4
27.320000000 4038.1
27.340000000 4026.9
27.360000000 4126.7
27.380000000 4135.3
27.400000000 4081.8
27.420000000 3997.0
27.440000000 3968.0
27.460000000 3973.1
27.480000000 3957.6
27.500000000 3908.0
27.520000000 3892.8
27.540000000 3941.7
27.560000000 3995.7
27.580000000 4026.1
27.600000000 3995.7
27.620000000 3959.2
27.640000000 3957.7
27.660000000 3983.2
27.680000000 4007.5
27.700000000 4003.3
27.720000000 3961.8
27.740000000 3935.5
27.760000000 3988.0
27.780000000 4032.2
27.800000000 4049.1
27.820000000 4064.0
27.840000000 4093.6
27.860000000 4087.5
27.880000000 4116.2
27.900000000 4153.6
27.920000000 4182.4
27.940000000 4177.9
27.960000000 4185.0
27.980000000 4266.4
28.000000000 4372.0
28.020000000 4263.1
28.040000000 4241.7
28.060000000 4252.4
28.080000000 4268.6
28.100000000 4254.9
28.120000000 4402.3
28.140000000 4310.8
28.160000000 4167.2
28.180000000 4256.3
28.200000000 4244.1
28.220000000 4213.6
28.240000000 4195.4
28.260000000 4217.1
28.280000000 4311.5
28.300000000 4290.9
28.320000000 4261.2
28.340000000 4270.3
28.360000000 4255.9
28.380000000 4334.8
28.400000000 4443.9
28.420000000 4525.6
28.440000000 4443.3
28.460000000 4428.7
28.480000000 4502.7
28.500000000 4581.7
28.520000000 4470.5
28.540000000 4529.5
28.560000000 4618.9
28.580000000 4687.4
28.600000000 4682.1
28.620000000 4759.2
28.640000000 4901.5
28.660000000 5039.7
28.680000000 5111.1
28.700000000 5114.2
28.720000000 5172.4
28.740000000 5351.4
28.760000000 5625.9
28.780000000 5530.7
28.800000000 5756.8
28.820000000 6017.8
28.840000000 6242.8
28.860000000 6553.6
28.880000000 6852.6
28.900000000 7072.6
28.920000000 7261.0
28.940000000 7564.2
28.960000000 7919.5
28.980000000 8268.8
29.000000000 8634.5
29.020000000 9058.7
29.040000000 9338.0
29.060000000 9646.5
29.080000000 9982.3
29.100000000 10333.3
29.120000000 10561.0
29.140000000 10628.4
29.160000000 10616.7
29.180000000 10556.0
29.200000000 10278.8
29.220000000 9813.3
29.240000000 9295.8
29.260000000 8786.4
29.280000000 8321.8
29.300000000 7823.1
29.320000000 7366.4
29.340000000 6958.8
29.360000000 6575.0
29.380000000 6368.5
29.400000000 6164.1
29.420000000 5942.2
29.440000000 5703.8
29.460000000 5634.1
29.480000000 5444.6
29.500000000 5268.7
29.520000000 5248.5
29.540000000 5265.2
29.560000000 5205.2
29.580000000 5127.7
29.600000000 5067.5
29.620000000 4983.8
29.640000000 4914.8
29.660000000 4834.2
29.680000000 4759.6
29.700000000 4823.6
29.720000000 4737.1
29.740000000 4703.9
29.760000000 4723.7
29.780000000 4660.5
29.800000000 4600.7
29.820000000 4593.4
29.840000000 4630.7
29.860000000 4688.6
29.880000000 4591.0
29.900000000 4637.1
29.920000000 4696.1
29.940000000 4617.2
29.960000000 4626.3
29.980000000 4699.0
30.000000000 4723.0
30.020000000 4645.4
30.040000000 4725.4
30.060000000 4549.3
30.080000000 4494.1
30.100000000 4646.7
30.120000000 4616.2
30.140000000 4723.3
30.160000000 4792.1
30.180000000 4798.1
30.200000000 4803.4
30.220000000 4849.4
30.240000000 4817.9
30.260000000 4774.1
30.280000000 4865.5
30.300000000 4888.8
30.320000000 4973.2
30.340000000 5032.5
30.360000000 4965.0
30.380000000 5053.3
30.400000000 5100.7
30.420000000 5121.3
30.440000000 5140.3
30.460000000 5324.6
30.480000000 5354.5
30.500000000 5353.9
30.520000000 5391.2
30.540000000 5528.3
30.560000000 5606.7
30.580000000 5722.4
30.600000000 5885.4
30.620000000 6042.3
30.640000000 6179.8
30.660000000 6439.1
30.680000000 6676.8
30.700000000 6574.0
30.720000000 6964.7
30.740000000 7335.1
30.760000000 7701.2
30.780000000 8124.1
30.800000000 8882.7
30.820000000 9569.2
30.840000000 10532.5
30.860000000 11995.5
30.880000000 13291.0
30.900000000 14683.7
30.920000000 15537.7
30.940000000 15651.1
30.960000000 15715.8
30.980000000 16029.0
31.000000000 16276.9
31.020000000 16432.7
31.040000000 16727.4
31.060000000 17222.2
31.080000000 17545.5
31.100000000 17645.4
31.120000000 17545.6
31.140000000 17140.9
31.160000000 16551.4
31.180000000 15879.7
31.200000000 15247.6
31.220000000 14727.5
31.240000000 13973.6
31.260000000 13149.8
31.280000000 12407.7
31.300000000 11895.1
31.320000000 11362.2
31.340000000 10860.2
31.360000000 10403.9
31.380000000 9912.7
31.400000000 9737.7
31.420000000 9514.4
31.440000000 9186.5
31.460000000 8980.1
31.480000000 8632.2
31.500000000 8364.0
31.520000000 8198.7
31.540000000 8096.7
31.560000000 7875.6
31.580000000 7826.5
31.600000000 7852.1
31.620000000 7782.0
31.640000000 7615.1
31.660000000 7464.7
31.680000000 7320.0
31.700000000 7172.1
31.720000000 7067.8
31.740000000 7028.8
31.760000000 6986.0
31.780000000 6917.0
31.800000000 6944.4
31.820000000 6852.0
31.840000000 6787.6
31.860000000 6774.3
31.880000000 6698.9
31.900000000 6602.6
31.920000000 6462.8
31.940000000 6304.5
31.960000000 6197.9
31.980000000 6130.4
32.000000000 6048.0
32.020000000 5965.3
32.040000000 5911.2
32.060000000 5810.3
32.080000000 5783.1
32.100000000 5758.2
32.120000000 5665.9
32.140000000 5532.6
32.160000000 5538.0
32.180000000 5555.4
32.200000000 5515.6
32.220000000 5481.3
32.240000000 5449.4
32.260000000 5446.0
32.280000000 5474.4
32.300000000 5507.9
32.320000000 5498.8
32.340000000 5541.8
32.360000000 5652.0
32.380000000 5815.0
32.400000000 5893.6
32.420000000 5854.9
32.440000000 5746.9
32.460000000 5651.0
32.480000000 5318.1
32.500000000 5159.0
32.520000000 5019.3
32.540000000 4739.9
32.560000000 4636.3
32.580000000 4575.9
32.600000000 4514.9
32.620000000 4431.9
32.640000000 4386.2
32.660000000 4434.0
32.680000000 4456.3
32.700000000 4423.0
32.720000000 4416.1
32.740000000 4287.3
32.760000000 4223.8
32.780000000 4207.7
32.800000000 4069.8
32.820000000 4146.4
32.840000000 4120.1
32.860000000 4043.7
32.880000000 4071.9
32.900000000 3981.6
32.920000000 3959.8
32.940000000 3987.5
32.960000000 4031.4
32.980000000 3955.2
33.000000000 3899.6
33.020000000 3878.8
33.040000000 3900.3
33.060000000 3939.9
33.080000000 3904.5
33.100000000 3819.8
33.120000000 3734.7
33.140000000 3837.5
33.160000000 3824.6
33.180000000 3796.4
33.200000000 3771.6
33.220000000 3730.5
33.240000000 3752.5
33.260000000 3725.4
33.280000000 3694.0
33.300000000 3765.6
33.320000000 3682.7
33.340000000 3670.4
33.360000000 3693.2
33.380000000 3697.0
33.400000000 3696.2
33.420000000 3663.5
33.440000000 3625.9
33.460000000 3604.5
33.480000000 3611.4
33.500000000 3624.0
33.520000000 3612.6
33.540000000 3579.5
33.560000000 3613.0
33.580000000 3578.9
33.600000000 3588.7
33.620000000 3643.8
33.640000000 3652.9
33.660000000 3610.3
33.680000000 3541.3
33.700000000 3494.0
33.720000000 3552.7
33.740000000 3625.7
33.760000000 3597.3
33.780000000 3560.7
33.800000000 3634.9
33.820000000 3606.7
33.840000000 3585.4
33.860000000 3545.2
33.880000000 3477.6
33.900000000 3533.2
33.920000000 3507.5
33.940000000 3449.6
33.960000000 3395.1
33.980000000 3411.9
34.000000000 3495.5
34.020000000 3503.1
34.040000000 3443.6
34.060000000 3489.3
34.080000000 3451.1
34.100000000 3467.5
34.120000000 3500.3
34.140000000 3424.9
34.160000000 3465.6
34.180000000 3445.1
34.200000000 3428.8
34.220000000 3515.7
34.240000000 3444.7
34.260000000 3411.1
34.280000000 3387.2
34.300000000 3357.0
34.320000000 3444.6
34.340000000 3500.4
34.360000000 3456.4
34.380000000 3319.4
34.400000000 3365.1
34.420000000 3460.4
34.440000000 3459.6
34.460000000 3365.8
34.480000000 3358.9
34.500000000 3414.0
34.520000000 3440.9
34.540000000 3441.1
34.560000000 3454.1
34.580000000 3453.6
34.600000000 3473.6
34.620000000 3516.9
34.640000000 3583.2
34.660000000 3510.3
34.680000000 3448.5
34.700000000 3420.2
34.720000000 3436.7
34.740000000 3389.5
34.760000000 3387.6
34.780000000 3391.8
34.800000000 3374.5
34.820000000 3296.8
34.840000000 3319.2
34.860000000 3395.9
34.880000000 3473.2
34.900000000 3403.9
34.920000000 3471.7
34.940000000 3494.3
34.960000000 3452.1
34.980000000 3383.6
35.000000000 3343.0
35.020000000 3325.2
35.040000000 3330.0
35.060000000 3357.4
35.080000000 3363.2
35.100000000 3358.9
35.120000000 3346.8
35.140000000 3329.7
35.160000000 3322.1
35.180000000 3351.6
35.200000000 3350.8
35.220000000 3296.0
35.240000000 3315.8
35.260000000 3344.0
35.280000000 3354.9
35.300000000 3350.6
35.320000000 3378.7
35.340000000 3313.8
35.360000000 3280.1
35.380000000 3294.5
35.400000000 3332.6
35.420000000 3392.8
35.440000000 3359.8
35.460000000 3335.2
35.480000000 3494.3
35.500000000 3397.0
35.520000000 3351.0
35.540000000 3300.3
35.560000000 3189.2
35.580000000 3289.7
35.600000000 3356.9
35.620000000 3342.7
35.640000000 3244.0
35.660000000 3298.1
35.680000000 3301.7
35.700000000 3316.3
35.720000000 3354.5
35.740000000 3364.4
35.760000000 3339.1
35.780000000 3346.5
35.800000000 3362.2
35.820000000 3279.2
35.840000000 3458.4
35.860000000 3478.6
35.880000000 3380.2
35.900000000 3315.4
35.920000000 3267.6
35.940000000 3262.9
35.960000000 3305.5
35.980000000 3394.8
36.000000000 3430.6
36.020000000 3384.8
36.040000000 3328.2
36.060000000 3309.0
36.080000000 3321.2
36.100000000 3358.1
36.120000000 3437.1
36.140000000 3531.4
36.160000000 3472.0
36.180000000 3448.7
36.200000000 3456.8
36.220000000 3497.9
36.240000000 3580.2
36.260000000 3600.6
36.280000000 3583.5
36.300000000 3584.5
36.320000000 3694.9
36.340000000 3694.9
36.360000000 3667.6
36.380000000 3671.0
36.400000000 3761.0
36.420000000 3757.9
36.440000000 3790.1
36.460000000 3819.0
36.480000000 3821.9
36.500000000 3860.8
36.520000000 3862.4
36.540000000 3864.5
36.560000000 3879.0
36.580000000 3879.0
36.600000000 3909.1
36.620000000 3938.7
36.640000000 3948.4
36.660000000 3905.0
36.680000000 3972.1
36.700000000 3990.9
36.720000000 3967.8
36.740000000 3959.5
36.760000000 3876.9
36.780000000 3847.9
36.800000000 3830.8
36.820000000 3767.9
36.840000000 3754.2
36.860000000 3624.9
36.880000000 3501.7
36.900000000 3470.9
36.920000000 3425.2
36.940000000 3383.0
36.960000000 3363.4
36.980000000 3367.2
37.000000000 3345.1
37.020000000 3398.7
37.040000000 3397.7
37.060000000 3328.3
37.080000000 3272.0
37.100000000 3297.0
37.120000000 3292.0
37.140000000 3268.4
37.160000000 3285.9
37.180000000 3294.1
37.200000000 3291.8
37.220000000 3278.0
37.240000000 3252.1
37.260000000 3238.3
37.280000000 3224.1
37.300000000 3250.4
37.320000000 3335.1
37.340000000 3252.1
37.360000000 3238.4
37.380000000 3226.9
37.400000000 3188.4
37.420000000 3157.9
37.440000000 3183.3
37.460000000 3183.8
37.480000000 3142.6
37.500000000 3090.9
37.520000000 3117.0
37.540000000 3149.2
37.560000000 3143.0
37.580000000 3031.0
37.600000000 3090.9
37.620000000 3117.6
37.640000000 3110.2
37.660000000 3091.2
37.680000000 3091.0
37.700000000 3059.6
37.720000000 3003.4
37.740000000 2943.0
37.760000000 3122.0
37.780000000 3092.1
37.800000000 3052.0
37.820000000 3079.6
37.840000000 2950.1
37.860000000 2959.9
37.880000000 2969.7
37.900000000 2947.4
37.920000000 2949.7
37.940000000 2948.7
37.960000000 3009.6
37.980000000 3062.1
38.000000000 2916.6
38.020000000 2943.5
38.040000000 2967.9
38.060000000 2979.0
38.080000000 2985.9
38.100000000 2980.0
38.120000000 2967.8
38.140000000 2980.2
38.160000000 3038.6
38.180000000 3004.3
38.200000000 3040.5
38.220000000 3049.5
38.240000000 2998.4
38.260000000 3079.9
38.280000000 2985.7
38.300000000 2973.0
38.320000000 3078.5
38.340000000 3069.4
38.360000000 3169.1
38.380000000 3232.6
38.400000000 3255.9
38.420000000 3304.7
38.440000000 3434.0
38.460000000 3505.0
38.480000000 3536.6
38.500000000 3580.8
38.520000000 3576.1
38.540000000 3658.4
38.560000000 3676.3
38.580000000 3489.4
38.600000000 3380.5
38.620000000 3373.0
38.640000000 3366.9
38.660000000 3307.6
38.680000000 3271.0
38.700000000 3201.7
38.720000000 3131.5
38.740000000 3069.8
38.760000000 3004.3
38.780000000 2952.3
38.800000000 2942.7
38.820000000 2969.3
38.840000000 2998.2
38.860000000 2963.9
38.880000000 2966.3
38.900000000 2986.4
38.920000000 2973.5
38.940000000 2938.5
38.960000000 2908.6
38.980000000 2889.5
39.000000000 2885.3
39.020000000 2898.3
39.040000000 2953.0
39.060000000 2943.7
39.080000000 2823.0
39.100000000 2810.8
39.120000000 2841.0
39.140000000 2894.1
39.160000000 2939.9
39.180000000 2871.4
39.200000000 2839.7
39.220000000 2809.8
39.240000000 2807.0
39.260000000 2927.3
39.280000000 2865.1
39.300000000 2844.2
39.320000000 2853.0
39.340000000 2819.5
39.360000000 2806.4
39.380000000 2850.4
39.400000000 2899.0
39.420000000 2891.5
39.440000000 2798.6
39.460000000 2778.0
39.480000000 2786.1
39.500000000 2793.1
39.520000000 2819.7
39.540000000 2823.1
39.560000000 2840.9
39.580000000 2871.3
39.600000000 2815.7
39.620000000 2790.3
39.640000000 2788.0
39.660000000 2810.1
39.680000000 2865.7
39.700000000 2859.9
39.720000000 2862.3
39.740000000 2854.0
39.760000000 2780.9
39.780000000 2831.1
39.800000000 2853.0
39.820000000 2833.7
39.840000000 2771.8
39.860000000 2868.5
39.880000000 2788.4
39.900000000 2714.0
39.920000000 2773.4
39.940000000 2822.1
39.960000000 2821.3
39.980000000 2850.8
40.000000000 2923.0
40.020000000 2892.6
40.040000000 2878.9
40.060000000 2856.4
40.080000000 2837.4
40.100000000 2886.9
40.120000000 2907.0
40.140000000 2920.9
40.160000000 2915.8
40.180000000 2859.5
40.200000000 2871.7
40.220000000 2895.2
40.240000000 2923.5
40.260000000 2954.0
40.280000000 2932.7
40.300000000 2978.3
40.320000000 2977.9
40.340000000 2859.3
40.360000000 2896.6
40.380000000 2930.5
40.400000000 2943.4
40.420000000 2935.7
40.440000000 2966.2
40.460000000 2968.9
40.480000000 3010.4
40.500000000 3081.3
40.520000000 3077.5
40.540000000 3028.7
40.560000000 2983.7
40.580000000 2960.1
40.600000000 2976.8
40.620000000 2987.2
40.640000000 3002.8
40.660000000 3022.5
40.680000000 3043.8
40.700000000 2995.7
40.720000000 2998.1
40.740000000 3015.3
40.760000000 3016.1
40.780000000 3018.4
40.800000000 2953.1
40.820000000 2923.1
40.840000000 2965.6
40.860000000 2953.4
40.880000000 2885.8
40.900000000 2895.5
40.920000000 2983.0
40.940000000 2983.0
40.960000000 2925.3
40.980000000 2885.4
41.000000000 2851.4
41.020000000 2763.9
41.040000000 2884.8
41.060000000 2876.9
41.080000000 2827.7
41.100000000 2904.7
41.120000000 2883.5
41.140000000 2832.7
41.160000000 2812.7
41.180000000 2870.1
41.200000000 2850.3
41.220000000 2842.8
41.240000000 2855.9
41.260000000 2887.3
41.280000000 2880.4
41.300000000 2862.7
41.320000000 2855.3
41.340000000 2860.4
41.360000000 2856.6
41.380000000 2879.4
41.400000000 2917.5
41.420000000 2966.4
41.440000000 3021.2
41.460000000 2983.6
41.480000000 3034.9
41.500000000 3112.3
41.520000000 3092.5
41.540000000 3015.6
41.560000000 3005.6
41.580000000 3027.8
41.600000000 3048.8
41.620000000 3185.9
41.640000000 3174.0
41.660000000 3101.2
41.680000000 3037.3
41.700000000 3102.8
41.720000000 3180.2
41.740000000 3268.5
41.760000000 3351.3
41.780000000 3359.7
41.800000000 3395.1
41.820000000 3407.5
41.840000000 3408.0
41.860000000 3453.7
41.880000000 3526.9
41.900000000 3558.9
41.920000000 3550.0
41.940000000 3514.2
41.960000000 3485.8
41.980000000 3531.7
42.000000000 3551.5
42.020000000 3444.1
42.040000000 3336.7
42.060000000 3246.2
42.080000000 3218.3
42.100000000 3254.9
42.120000000 3093.4
42.140000000 2991.5
42.160000000 2951.6
42.180000000 2955.6
42.200000000 2912.1
42.220000000 2846.5
42.240000000 2828.9
42.260000000 2860.8
42.280000000 2898.1
42.300000000 2835.1
42.320000000 2808.9
42.340000000 2814.2
42.360000000 2811.1
42.380000000 2709.7
42.400000000 2665.1
42.420000000 2654.5
42.440000000 2645.0
42.460000000 2702.2
42.480000000 2741.0
42.500000000 2765.1
42.520000000 2784.4
42.540000000 2877.3
42.560000000 2893.7
42.580000000 2925.5
42.600000000 2977.6
42.620000000 2868.0
42.640000000 2807.4
42.660000000 2791.6
42.680000000 2801.0
42.700000000 2781.2
42.720000000 2697.2
42.740000000 2660.6
42.760000000 2664.6
42.780000000 2666.9
42.800000000 2649.7
42.820000000 2632.3
42.840000000 2632.8
42.860000000 2668.7
42.880000000 2634.4
42.900000000 2570.4
42.920000000 2554.9
42.940000000 2626.7
42.960000000 2552.1
42.980000000 2592.9
43.000000000 2631.9
43.020000000 2622.3
43.040000000 2609.3
43.060000000 2588.9
43.080000000 2572.2
43.100000000 2557.1
43.120000000 2526.7
43.140000000 2557.8
43.160000000 2611.2
43.180000000 2661.5
43.200000000 2671.4
43.220000000 2586.1
43.240000000 2550.6
43.260000000 2540.4
43.280000000 2513.0
43.300000000 2539.7
43.320000000 2570.5
43.340000000 2579.6
43.360000000 2552.1
43.380000000 2569.6
43.400000000 2602.5
43.420000000 2627.7
43.440000000 2636.5
43.460000000 2648.7
43.480000000 2660.9
43.500000000 2646.6
43.520000000 2604.3
43.540000000 2557.1
43.560000000 2584.8
43.580000000 2634.3
43.600000000 2684.0
43.620000000 2708.3
43.640000000 2673.8
43.660000000 2682.6
43.680000000 2676.2
43.700000000 2568.8
43.720000000 2560.4
43.740000000 2543.5
43.760000000 2558.8
43.780000000 2633.5
43.800000000 2643.4
43.820000000 2567.6
43.840000000 2540.2
43.860000000 2606.0
43.880000000 2580.1
43.900000000 2557.3
43.920000000 2537.1
43.940000000 2527.1
43.960000000 2556.0
43.980000000 2606.6
44.000000000 2596.7
44.020000000 2543.4
44.040000000 2519.8
44.060000000 2616.5
44.080000000 2637.5
44.100000000 2579.6
44.120000000 2463.8
44.140000000 2543.0
44.160000000 2567.4
44.180000000 2533.9
44.200000000 2451.4
44.220000000 2461.3
44.240000000 2505.3
44.260000000 2530.3
44.280000000 2515.1
44.300000000 2525.8
44.320000000 2497.2
44.340000000 2495.3
44.360000000 2517.2
44.380000000 2458.6
44.400000000 2519.6
44.420000000 2483.6
44.440000000 2392.7
44.460000000 2452.9
44.480000000 2458.0
44.500000000 2447.9
44.520000000 2438.9
44.540000000 2448.8
44.560000000 2460.9
44.580000000 2431.2
44.600000000 2416.7
44.620000000 2466.8
44.640000000 2434.0
44.660000000 2425.6
44.680000000 2441.3
44.700000000 2475.2
44.720000000 2477.5
44.740000000 2504.3
44.760000000 2472.4
44.780000000 2383.2
44.800000000 2377.8
44.820000000 2402.8
44.840000000 2434.8
44.860000000 2448.8
44.880000000 2393.2
44.900000000 2385.2
44.920000000 2420.6
44.940000000 2447.1
44.960000000 2383.1
44.980000000 2428.9
