5.020000000 14059.0
5.040000000 14107.0
5.060000000 14170.2
5.080000000 14197.2
5.100000000 14178.9
5.120000000 14178.1
5.140000000 14144.4
5.160000000 14121.4
5.180000000 14151.3
5.200000000 14323.5
5.220000000 14138.8
5.240000000 14134.8
5.260000000 14228.9
5.280000000 14145.9
5.300000000 14158.0
5.320000000 14106.5
5.340000000 14076.4
5.360000000 14168.1
5.380000000 14175.0
5.400000000 14348.9
5.420000000 14478.6
5.440000000 14438.4
5.460000000 14550.4
5.480000000 14460.9
5.500000000 14416.0
5.520000000 14506.2
5.540000000 14618.2
5.560000000 14476.3
5.580000000 14471.6
5.600000000 14593.2
5.620000000 14477.4
5.640000000 14445.8
5.660000000 14534.8
5.680000000 14666.9
5.700000000 14685.9
5.720000000 14670.5
5.740000000 14774.2
5.760000000 14809.7
5.780000000 14551.6
5.800000000 14832.6
5.820000000 14857.3
5.840000000 14785.8
5.860000000 14763.2
5.880000000 15021.4
5.900000000 14889.3
5.920000000 14848.3
5.940000000 15046.0
5.960000000 14975.1
5.980000000 15019.7
6.000000000 15012.2
6.020000000 14986.5
6.040000000 15217.2
6.060000000 15265.3
6.080000000 15346.5
6.100000000 15416.6
6.120000000 15314.5
6.140000000 15462.0
6.160000000 15481.8
6.180000000 15491.5
6.200000000 15673.5
6.220000000 15654.3
6.240000000 15615.2
6.260000000 15717.3
6.280000000 16039.3
6.300000000 15803.2
6.320000000 15766.3
6.340000000 15731.0
6.360000000 15654.7
6.380000000 15921.3
6.400000000 15988.3
6.420000000 16122.7
6.440000000 16352.3
6.460000000 16476.5
6.480000000 16333.9
6.500000000 16328.4
6.520000000 16448.6
6.540000000 16513.3
6.560000000 16658.6
6.580000000 16916.9
6.600000000 17170.9
6.620000000 17260.0
6.640000000 17401.1
6.660000000 17511.8
6.680000000 17573.8
6.700000000 17594.8
6.720000000 17974.1
6.740000000 18022.4
6.760000000 18109.1
6.780000000 18379.7
6.800000000 18413.2
6.820000000 18668.4
6.840000000 18958.5
6.860000000 19222.3
6.880000000 19469.1
6.900000000 19904.1
6.920000000 20187.5
6.940000000 20364.1
6.960000000 20691.6
6.980000000 21284.5
7.000000000 21682.2
7.020000000 21987.2
7.040000000 22410.7
7.060000000 23039.4
7.080000000 23425.8
7.100000000 23682.6
7.120000000 23911.5
7.140000000 23779.0
7.160000000 23551.1
7.180000000 23239.2
7.200000000 22832.8
7.220000000 22194.6
7.240000000 21605.7
7.260000000 21201.8
7.280000000 20942.5
7.300000000 20455.1
7.320000000 20216.9
7.340000000 19991.6
7.360000000 19823.5
7.380000000 19946.1
7.400000000 19752.3
7.420000000 19672.9
7.440000000 19651.9
7.460000000 19532.4
7.480000000 19584.5
7.500000000 19480.1
7.520000000 19313.8
7.540000000 19195.2
7.560000000 19263.8
7.580000000 19246.3
7.600000000 19230.6
7.620000000 19287.2
7.640000000 19545.4
7.660000000 19509.8
7.680000000 19399.6
7.700000000 19349.2
7.720000000 19576.9
7.740000000 19295.7
7.760000000 19382.5
7.780000000 19735.3
7.800000000 19551.0
7.820000000 19719.3
7.840000000 19828.7
7.860000000 19898.6
7.880000000 20041.8
7.900000000 19964.1
7.920000000 19819.6
7.940000000 19841.7
7.960000000 20240.5
7.980000000 20138.5
8.000000000 20150.2
8.020000000 20247.2
8.040000000 20397.9
8.060000000 20490.8
8.080000000 20562.6
8.100000000 20671.1
8.120000000 20814.0
8.140000000 20862.0
8.160000000 20837.0
8.180000000 20930.9
8.200000000 21133.6
8.220000000 21281.3
8.240000000 21502.6
8.260000000 21519.4
8.280000000 21496.8
8.300000000 21786.9
8.320000000 21818.9
8.340000000 21933.1
8.360000000 22081.6
8.380000000 22194.4
8.400000000 22409.2
8.420000000 22586.5
8.440000000 22690.9
8.460000000 22708.7
8.480000000 22756.7
8.500000000 22905.9
8.520000000 22993.0
8.540000000 23021.7
8.560000000 23397.2
8.580000000 23424.1
8.600000000 23524.9
8.620000000 23688.9
8.640000000 23537.3
8.660000000 23716.3
8.680000000 23912.2
8.700000000 24029.0
8.720000000 23974.9
8.740000000 24306.5
8.760000000 24557.1
8.780000000 24661.4
8.800000000 24583.6
8.820000000 24799.1
8.840000000 24859.2
8.860000000 25002.7
8.880000000 25354.6
8.900000000 25187.0
8.920000000 25373.8
8.940000000 25501.9
8.960000000 25451.0
8.980000000 25667.2
9.000000000 25940.7
9.020000000 26029.3
9.040000000 25939.4
9.060000000 25920.3
9.080000000 26314.8
9.100000000 26414.5
9.120000000 26292.3
9.140000000 26321.2
9.160000000 26807.4
9.180000000 26896.8
9.200000000 26839.3
9.220000000 27022.8
9.240000000 26999.4
9.260000000 27077.2
9.280000000 27285.4
9.300000000 27601.7
9.320000000 27396.9
9.340000000 27360.9
9.360000000 27488.0
9.380000000 27731.6
9.400000000 27819.2
9.420000000 28107.3
9.440000000 28114.6
9.460000000 27881.0
9.480000000 28073.7
9.500000000 28313.4
9.520000000 28637.6
9.540000000 28886.8
9.560000000 28708.5
9.580000000 28743.4
9.600000000 29003.0
9.620000000 29347.5
9.640000000 29589.7
9.660000000 29627.5
9.680000000 29719.5
9.700000000 29950.4
9.720000000 30366.5
9.740000000 30589.6
9.760000000 31020.8
9.780000000 31455.8
9.800000000 31794.2
9.820000000 32116.3
9.840000000 32267.4
9.860000000 32758.9
9.880000000 33649.5
9.900000000 34512.4
9.920000000 35111.3
9.940000000 35925.2
9.960000000 36968.3
9.980000000 38062.7
10.000000000 39148.0
10.020000000 40389.1
10.040000000 41883.1
10.060000000 43740.7
10.080000000 45358.9
10.100000000 47651.4
10.120000000 50121.9
10.140000000 52291.6
10.160000000 54120.2
10.180000000 55322.3
10.200000000 55056.4
10.220000000 52821.4
10.240000000 48513.0
10.260000000 43987.8
10.280000000 39578.5
10.300000000 35555.4
10.320000000 32530.4
10.340000000 30511.5
10.360000000 28691.0
10.380000000 27075.2
10.400000000 26092.8
10.420000000 25069.3
10.440000000 24085.3
10.460000000 23136.8
10.480000000 22204.6
10.500000000 21977.6
10.520000000 21401.9
10.540000000 20786.0
10.560000000 20445.0
10.580000000 19981.2
10.600000000 19370.1
10.620000000 18858.3
10.640000000 18555.9
10.660000000 18093.6
10.680000000 17886.3
10.700000000 17699.6
10.720000000 17459.2
10.740000000 17236.8
10.760000000 16923.3
10.780000000 16657.7
10.800000000 16459.6
10.820000000 16296.6
10.840000000 16113.7
10.860000000 15929.5
10.880000000 15792.8
10.900000000 15777.5
10.920000000 15679.2
10.940000000 15497.5
10.960000000 15286.2
10.980000000 15103.5
11.000000000 15006.0
11.020000000 14832.5
11.040000000 14753.0
11.060000000 14841.8
11.080000000 14735.9
11.100000000 14561.1
11.120000000 14423.7
11.140000000 14375.0
11.160000000 14449.7
11.180000000 14238.2
11.200000000 14121.1
11.220000000 14128.6
11.240000000 14083.7
11.260000000 13944.6
11.280000000 13875.8
11.300000000 13893.7
11.320000000 13988.9
11.340000000 13872.8
11.360000000 13858.9
11.380000000 13752.7
11.400000000 13344.3
11.420000000 13476.1
11.440000000 13453.8
11.460000000 13403.4
11.480000000 13396.7
11.500000000 13240.6
11.520000000 13294.9
11.540000000 13347.6
11.560000000 13324.5
11.580000000 13328.3
11.600000000 13301.9
11.620000000 13207.4
11.640000000 13124.7
11.660000000 13322.7
11.680000000 13197.7
11.700000000 13046.1
11.720000000 12958.5
11.740000000 13021.7
11.760000000 13099.4
11.780000000 13067.5
11.800000000 13008.2
11.820000000 13024.0
11.840000000 13019.4
11.860000000 13067.3
11.880000000 13073.7
11.900000000 12991.8
11.920000000 13117.5
11.940000000 13082.8
11.960000000 13011.7
11.980000000 12965.0
12.000000000 12957.4
12.020000000 12968.5
12.040000000 12941.8
12.060000000 12880.0
12.080000000 12843.4
12.100000000 12862.4
12.120000000 12804.2
12.140000000 12727.4
12.160000000 12788.3
12.180000000 12781.3
12.200000000 12761.7
12.220000000 12762.0
12.240000000 12816.0
12.260000000 12787.0
12.280000000 12757.1
12.300000000 12748.3
12.320000000 12778.6
12.340000000 12853.2
12.360000000 12834.9
12.380000000 12831.9
12.400000000 12870.4
12.420000000 12776.0
12.440000000 12771.6
12.460000000 12823.5
12.480000000 12890.4
12.500000000 12865.3
12.520000000 12866.0
12.540000000 12779.3
12.560000000 12718.7
12.580000000 12963.2
12.600000000 13016.9
12.620000000 12996.7
12.640000000 13001.9
12.660000000 13148.9
12.680000000 13150.8
12.700000000 13134.4
12.720000000 13111.7
12.740000000 13099.3
12.760000000 13218.1
12.780000000 13143.0
12.800000000 13191.4
12.820000000 13443.4
12.840000000 13280.4
12.860000000 13276.1
12.880000000 13315.9
12.900000000 13382.6
12.920000000 13551.7
12.940000000 13542.8
12.960000000 13603.8
12.980000000 13696.7
13.000000000 13632.0
13.020000000 13629.8
13.040000000 13723.0
13.060000000 13850.9
13.080000000 13924.8
13.100000000 13833.1
13.120000000 13717.2
13.140000000 13650.4
13.160000000 13691.2
13.180000000 13739.9
13.200000000 13879.5
13.220000000 13959.3
13.240000000 13914.0
13.260000000 13904.9
13.280000000 14120.9
13.300000000 14281.5
13.320000000 14342.8
13.340000000 14527.9
13.360000000 14567.4
13.380000000 14584.3
13.400000000 14596.9
13.420000000 14587.8
13.440000000 14728.4
13.460000000 14823.9
13.480000000 14975.1
13.500000000 15360.5
13.520000000 15312.1
13.540000000 15469.1
13.560000000 15778.4
13.580000000 16152.5
13.600000000 16165.4
13.620000000 16302.3
13.640000000 16517.8
13.660000000 16792.7
13.680000000 17201.7
13.700000000 17261.9
13.720000000 17447.2
13.740000000 17865.1
13.760000000 18201.0
13.780000000 18594.1
13.800000000 18986.0
13.820000000 19379.4
13.840000000 19815.0
13.860000000 20094.7
13.880000000 20793.1
13.900000000 21619.3
13.920000000 22006.2
13.940000000 22623.6
13.960000000 23632.8
13.980000000 24711.3
14.000000000 25535.2
14.020000000 26511.5
14.040000000 27793.3
14.060000000 29196.0
14.080000000 30597.0
14.100000000 31994.5
14.120000000 33411.6
14.140000000 34979.4
14.160000000 36827.8
14.180000000 39312.1
14.200000000 41319.9
14.220000000 43532.8
14.240000000 45982.3
14.260000000 48301.4
14.280000000 51051.1
14.300000000 53435.1
14.320000000 55501.6
14.340000000 57507.7
14.360000000 59313.0
14.380000000 60122.5
14.400000000 60157.0
14.420000000 59689.2
14.440000000 57482.1
14.460000000 54381.5
14.480000000 50417.8
14.500000000 45696.6
14.520000000 40983.9
14.540000000 37134.7
14.560000000 33888.7
14.580000000 31120.4
14.600000000 28764.8
14.620000000 26734.0
14.640000000 25048.3
14.660000000 23677.6
14.680000000 22517.6
14.700000000 21441.0
14.720000000 20518.2
14.740000000 19720.7
14.760000000 18978.1
14.780000000 18215.3
14.800000000 17700.3
14.820000000 17309.3
14.840000000 16881.7
14.860000000 16487.2
14.880000000 16178.8
14.900000000 15854.6
14.920000000 15456.6
14.940000000 15199.9
14.960000000 14846.7
14.980000000 14493.1
15.000000000 14208.6
15.020000000 14130.1
15.040000000 13775.1
15.060000000 13500.9
15.080000000 13341.4
15.100000000 13085.5
15.120000000 13045.6
15.140000000 12991.7
15.160000000 12907.8
15.180000000 12832.4
15.200000000 12569.1
15.220000000 12448.3
15.240000000 12380.7
15.260000000 12231.0
15.280000000 12215.7
15.300000000 12000.4
15.320000000 11891.1
15.340000000 12077.9
15.360000000 11839.5
15.380000000 11849.1
15.400000000 11782.8
15.420000000 11541.8
15.440000000 11508.3
15.460000000 11500.8
15.480000000 11425.6
15.500000000 11291.0
15.520000000 11221.0
15.540000000 11322.9
15.560000000 11322.8
15.580000000 11181.2
15.600000000 10913.9
15.620000000 11017.5
15.640000000 11054.7
15.660000000 11052.2
15.680000000 11088.8
15.700000000 11014.1
15.720000000 10866.6
15.740000000 10775.8
15.760000000 10825.2
15.780000000 10611.2
15.800000000 10520.4
15.820000000 10513.9
15.840000000 10558.0
15.860000000 10566.3
15.880000000 10609.0
15.900000000 10618.2
15.920000000 10566.7
15.940000000 10435.0
15.960000000 10321.6
15.980000000 10319.8
16.000000000 10407.4
16.020000000 10497.2
16.040000000 10373.7
16.060000000 10322.7
16.080000000 10267.9
16.100000000 10069.9
16.120000000 10206.6
16.140000000 10094.2
16.160000000 10016.7
16.180000000 10205.5
16.200000000 10066.1
16.220000000 10098.3
16.240000000 10071.7
16.260000000 9901.9
16.280000000 9929.4
16.300000000 9843.0
16.320000000 9869.9
16.340000000 10003.3
16.360000000 9904.3
16.380000000 9835.3
16.400000000 9801.9
16.420000000 9762.7
16.440000000 9617.2
16.460000000 9696.4
16.480000000 9803.5
16.500000000 9810.7
16.520000000 9561.7
16.540000000 9622.2
16.560000000 9661.2
16.580000000 9658.3
16.600000000 9602.2
16.620000000 9475.8
16.640000000 9470.8
16.660000000 9496.6
16.680000000 9503.8
16.700000000 9542.7
16.720000000 9477.4
16.740000000 9470.9
16.760000000 9553.9
16.780000000 9597.4
16.800000000 9516.9
16.820000000 9429.6
16.840000000 9374.5
16.860000000 9385.9
16.880000000 9489.3
16.900000000 9457.5
16.920000000 9393.4
16.940000000 9497.7
16.960000000 9370.4
16.980000000 9256.6
17.000000000 9164.2
17.020000000 9100.5
17.040000000 9319.8
17.060000000 9366.7
17.080000000 9326.0
17.100000000 9266.4
17.120000000 9303.7
17.140000000 9285.4
17.160000000 9232.3
17.180000000 9182.1
17.200000000 9269.0
17.220000000 9178.3
17.240000000 9075.8
17.260000000 9029.1
17.280000000 9114.4
17.300000000 9227.8
17.320000000 9213.5
17.340000000 9110.6
17.360000000 9017.7
17.380000000 9079.1
17.400000000 9097.6
17.420000000 9086.7
17.440000000 9071.1
17.460000000 9074.1
17.480000000 9033.5
17.500000000 8965.2
17.520000000 8882.4
17.540000000 8801.6
17.560000000 8909.5
17.580000000 8911.8
17.600000000 8786.1
17.620000000 9052.7
17.640000000 8986.8
17.660000000 8951.1
17.680000000 8971.2
17.700000000 8849.3
17.720000000 8881.5
17.740000000 8948.8
17.760000000 8989.1
17.780000000 8921.3
17.800000000 8897.7
17.820000000 8841.8
17.840000000 8804.6
17.860000000 8844.9
17.880000000 8761.9
17.900000000 8719.4
17.920000000 8700.5
17.940000000 8700.5
17.960000000 8815.5
17.980000000 8760.7
18.000000000 8717.0
18.020000000 8749.7
18.040000000 8762.7
18.060000000 8883.9
18.080000000 8880.3
18.100000000 8764.4
18.120000000 8776.6
18.140000000 8839.2
18.160000000 8798.8
18.180000000 8725.4
18.200000000 8796.9
18.220000000 8787.4
18.240000000 8749.8
18.260000000 8716.9
18.280000000 8723.5
18.300000000 8852.3
18.320000000 8879.9
18.340000000 8824.6
18.360000000 8717.1
18.380000000 8749.1
18.400000000 8675.1
18.420000000 8678.9
18.440000000 8804.4
18.460000000 8776.3
18.480000000 8747.5
18.500000000 8792.8
18.520000000 8847.0
18.540000000 8617.0
18.560000000 8746.4
18.580000000 8857.6
18.600000000 8914.7
18.620000000 8974.1
18.640000000 8881.2
18.660000000 8765.3
18.680000000 8720.5
18.700000000 8851.4
18.720000000 8842.1
18.740000000 8880.6
18.760000000 8922.1
18.780000000 8927.8
18.800000000 8889.0
18.820000000 8866.5
18.840000000 8901.3
18.860000000 8978.2
18.880000000 8860.9
18.900000000 8912.8
18.920000000 9048.7
18.940000000 9152.5
18.960000000 8903.5
18.980000000 8860.1
19.000000000 8969.4
19.020000000 9118.1
19.040000000 9080.7
19.060000000 8960.9
19.080000000 8884.0
19.100000000 8891.3
19.120000000 9022.3
19.140000000 8937.5
19.160000000 8906.9
19.180000000 8958.9
19.200000000 9099.0
19.220000000 9057.1
19.240000000 9122.2
19.260000000 9105.2
19.280000000 8959.3
19.300000000 9108.6
19.320000000 9189.9
19.340000000 9283.3
19.360000000 9383.8
19.380000000 9364.7
19.400000000 9258.9
19.420000000 9371.8
19.440000000 9604.3
19.460000000 9583.7
19.480000000 9445.7
19.500000000 9505.9
19.520000000 9633.7
19.540000000 9594.8
19.560000000 9740.1
19.580000000 9791.0
19.600000000 9803.0
19.620000000 9833.7
19.640000000 9851.2
19.660000000 9903.0
19.680000000 9998.7
19.700000000 10127.4
19.720000000 10160.9
19.740000000 10189.6
19.760000000 10213.8
19.780000000 10249.7
19.800000000 10365.5
19.820000000 10341.6
19.840000000 10414.4
19.860000000 10608.4
19.880000000 10857.5
19.900000000 10920.9
19.920000000 10970.8
19.940000000 11058.6
19.960000000 11233.8
19.980000000 11331.4
20.000000000 11455.6
20.020000000 11570.1
20.040000000 11640.1
20.060000000 11803.1
20.080000000 12002.2
20.100000000 12251.2
20.120000000 12531.8
20.140000000 12605.7
20.160000000 13034.4
20.180000000 13422.4
20.200000000 13647.0
20.220000000 13862.5
20.240000000 14257.2
20.260000000 14644.3
20.280000000 15057.1
20.300000000 15702.2
20.320000000 16284.1
20.340000000 16897.2
20.360000000 17612.9
20.380000000 18529.1
20.400000000 19271.0
20.420000000 20240.7
20.440000000 21436.1
20.460000000 22820.3
20.480000000 23925.4
20.500000000 25360.8
20.520000000 26712.4
20.540000000 27671.0
20.560000000 27968.7
20.580000000 27926.6
20.600000000 27179.0
20.620000000 25730.4
20.640000000 24371.7
20.660000000 22661.5
20.680000000 21106.0
20.700000000 19808.2
20.720000000 18695.5
20.740000000 17886.0
20.760000000 17167.3
20.780000000 16589.2
20.800000000 16289.9
20.820000000 15576.7
20.840000000 15192.0
20.860000000 14915.9
20.880000000 14461.4
20.900000000 14074.5
20.920000000 13941.9
20.940000000 13864.6
20.960000000 13686.5
20.980000000 13294.2
21.000000000 13241.1
21.020000000 13120.1
21.040000000 12829.7
21.060000000 12813.0
21.080000000 12741.7
21.100000000 12690.9
21.120000000 12663.1
21.140000000 12603.0
21.160000000 12664.0
21.180000000 12738.8
21.200000000 12793.6
21.220000000 12795.9
21.240000000 12892.4
21.260000000 12888.1
21.280000000 12895.0
21.300000000 13056.5
21.320000000 12972.7
21.340000000 13059.9
21.360000000 13257.6
21.380000000 13509.9
21.400000000 13732.3
21.420000000 13854.7
21.440000000 13971.1
21.460000000 14124.8
21.480000000 14303.0
21.500000000 14579.9
21.520000000 14826.1
21.540000000 15035.2
21.560000000 15311.6
21.580000000 15436.7
21.600000000 15617.4
21.620000000 15891.7
21.640000000 16267.2
21.660000000 16483.6
21.680000000 16679.7
21.700000000 16798.0
21.720000000 16756.1
21.740000000 16881.4
21.760000000 16831.3
21.780000000 16513.6
21.800000000 15887.7
21.820000000 15385.8
21.840000000 14685.2
21.860000000 13883.1
21.880000000 13076.2
21.900000000 12558.3
21.920000000 12063.1
21.940000000 11750.0
21.960000000 11578.8
21.980000000 11228.5
22.000000000 10937.6
22.020000000 10630.1
22.040000000 10321.7
22.060000000 10075.7
22.080000000 9962.6
22.100000000 9860.7
22.120000000 9744.0
22.140000000 9591.7
22.160000000 9428.8
22.180000000 9392.0
22.200000000 9329.9
22.220000000 9122.3
22.240000000 9007.3
22.260000000 8904.0
22.280000000 8884.1
22.300000000 8944.7
22.320000000 8788.6
22.340000000 8697.4
22.360000000 8612.1
22.380000000 8509.5
22.400000000 8378.5
22.420000000 8309.6
22.440000000 8264.7
22.460000000 8223.8
22.480000000 8158.3
22.500000000 8059.8
22.520000000 7967.8
22.540000000 7956.2
22.560000000 8123.8
22.580000000 7882.0
22.600000000 7821.4
22.620000000 7876.5
22.640000000 7967.7
22.660000000 7983.7
22.680000000 7893.1
22.700000000 7821.7
22.720000000 7846.6
22.740000000 7989.0
22.760000000 8007.0
22.780000000 7930.1
22.800000000 7808.1
22.820000000 7802.8
22.840000000 7848.6
22.860000000 7863.0
22.880000000 7819.2
22.900000000 7695.0
22.920000000 7704.1
22.940000000 7710.3
22.960000000 7677.7
22.980000000 7574.9
23.000000000 7654.9
23.020000000 7608.7
23.040000000 7525.6
23.060000000 7505.7
23.080000000 7616.1
23.100000000 7478.6
23.120000000 7327.0
23.140000000 7287.3
23.160000000 7173.0
23.180000000 7200.9
23.200000000 7240.9
23.220000000 7241.3
23.240000000 7197.9
23.260000000 7166.6
23.280000000 7107.5
23.300000000 7048.5
23.320000000 7088.2
23.340000000 7050.1
23.360000000 6943.9
23.380000000 6861.0
23.400000000 6947.8
23.420000000 6983.3
23.440000000 6922.2
23.460000000 6874.7
23.480000000 6953.2
23.500000000 7000.4
23.520000000 6915.9
23.540000000 6820.6
23.560000000 6805.8
23.580000000 6967.3
23.600000000 6912.2
23.620000000 6871.8
23.640000000 6914.8
23.660000000 6906.4
23.680000000 6830.1
23.700000000 6770.8
23.720000000 6759.1
23.740000000 6822.3
23.760000000 6782.0
23.780000000 6752.5
23.800000000 6739.3
23.820000000 6725.6
23.840000000 6774.5
23.860000000 6823.8
23.880000000 6846.2
23.900000000 6817.7
23.920000000 6863.4
23.940000000 6828.3
23.960000000 6845.7
23.980000000 6994.3
24.000000000 7088.7
24.020000000 7120.9
24.040000000 7180.9
24.060000000 7283.7
24.080000000 7295.9
24.100000000 7587.0
24.120000000 7945.9
24.140000000 8340.6
24.160000000 8846.3
24.180000000 9235.9
24.200000000 9139.5
24.220000000 8661.6
24.240000000 8098.0
24.260000000 7563.2
24.280000000 7220.3
24.300000000 6988.2
24.320000000 6759.2
24.340000000 6654.1
24.360000000 6585.5
24.380000000 6600.7
24.400000000 6708.7
24.420000000 6588.4
24.440000000 6472.7
24.460000000 6396.9
24.480000000 6374.6
24.500000000 6386.8
24.520000000 6388.4
24.540000000 6392.6
24.560000000 6421.0
24.580000000 6531.5
24.600000000 6411.3
24.620000000 6341.6
24.640000000 6351.0
24.660000000 6406.6
24.680000000 6330.0
24.700000000 6325.1
24.720000000 6346.9
24.740000000 6321.0
24.760000000 6279.1
24.780000000 6272.8
24.800000000 6264.8
24.820000000 6237.6
24.840000000 6380.0
24.860000000 6267.5
24.880000000 6204.9
24.900000000 6306.7
24.920000000 6312.8
24.940000000 6272.2
24.960000000 6255.0
24.980000000 6273.6
25.000000000 6293.4
25.020000000 6329.1
25.040000000 6329.9
25.060000000 6277.5
25.080000000 6151.8
25.100000000 6248.5
25.120000000 6246.9
25.140000000 6162.0
25.160000000 6050.0
25.180000000 6126.7
25.200000000 6142.7
25.220000000 6154.3
25.240000000 6206.6
25.260000000 6198.2
25.280000000 6147.6
25.300000000 6121.0
25.320000000 6146.5
25.340000000 6168.6
25.360000000 6162.6
25.380000000 6229.0
25.400000000 6343.6
25.420000000 6289.5
25.440000000 6352.1
25.460000000 6347.7
25.480000000 6318.4
25.500000000 6439.5
25.520000000 6459.5
25.540000000 6416.3
25.560000000 6370.9
25.580000000 6404.4
25.600000000 6252.4
25.620000000 6266.8
25.640000000 6317.0
25.660000000 6276.9
25.680000000 6158.8
25.700000000 6066.9
25.720000000 6099.4
25.740000000 6262.7
25.760000000 6173.6
25.780000000 6229.1
25.800000000 6168.0
25.820000000 5994.1
25.840000000 6103.8
25.860000000 6094.0
25.880000000 6011.4
25.900000000 5952.4
25.920000000 6126.8
25.940000000 6174.7
25.960000000 6194.0
25.980000000 6213.8
26.000000000 6261.7
26.020000000 6304.5
26.040000000 6295.3
26.060000000 6198.6
26.080000000 6002.6
26.100000000 6221.2
26.120000000 6210.0
26.140000000 6147.6
26.160000000 6134.4
26.180000000 6075.7
26.200000000 6080.9
26.220000000 6138.4
26.240000000 6214.3
26.260000000 6177.7
26.280000000 6167.5
26.300000000 6239.8
26.320000000 6321.3
26.340000000 6189.6
26.360000000 6236.2
26.380000000 6256.7
26.400000000 6233.9
26.420000000 6179.9
26.440000000 6200.1
26.460000000 6215.5
26.480000000 6223.5
26.500000000 6224.5
26.520000000 6203.9
26.540000000 6232.2
26.560000000 6252.5
26.580000000 6231.2
26.600000000 6210.6
26.620000000 6213.1
26.640000000 6196.6
26.660000000 6154.5
26.680000000 6137.8
26.700000000 6201.8
26.720000000 6236.0
26.740000000 6242.9
26.760000000 6304.6
26.780000000 6259.1
26.800000000 6164.8
26.820000000 6111.6
26.840000000 6239.5
26.860000000 6059.1
26.880000000 6025.8
26.900000000 6033.3
26.920000000 5947.5
26.940000000 6086.1
26.960000000 6063.1
26.980000000 6071.0
27.000000000 6212.2
27.020000000 6125.3
27.040000000 6121.3
27.060000000 6112.7
27.080000000 6078.5
27.100000000 6110.5
27.120000000 6136.8
27.140000000 6119.3
27.160000000 6077.7
27.180000000 6101.3
27.200000000 6185.8
27.220000000 6166.8
27.240000000 6093.6
27.260000000 6099.7
27.280000000 6265.4
27.300000000 6344.0
27.320000000 6374.0
27.340000000 6416.8
27.360000000 6397.0
27.380000000 6477.5
27.400000000 6498.5
27.420000000 6355.4
27.440000000 6232.8
27.460000000 6308.6
27.480000000 6345.4
27.500000000 6266.4
27.520000000 6269.4
27.540000000 6205.2
27.560000000 6119.1
27.580000000 6074.7
27.600000000 6234.7
27.620000000 6270.1
27.640000000 6300.4
27.660000000 6327.3
27.680000000 6316.6
27.700000000 6361.1
27.720000000 6363.2
27.740000000 6332.1
27.760000000 6288.1
27.780000000 6369.6
27.800000000 6454.2
27.820000000 6512.3
27.840000000 6525.1
27.860000000 6558.6
27.880000000 6548.2
27.900000000 6509.8
27.920000000 6472.1
27.940000000 6562.8
27.960000000 6650.3
27.980000000 6726.5
28.000000000 6798.9
28.020000000 6901.7
28.040000000 7032.4
28.060000000 7095.0
28.080000000 7129.2
28.100000000 7252.6
28.120000000 7173.7
28.140000000 7339.2
28.160000000 7522.9
28.180000000 7385.0
28.200000000 7295.6
28.220000000 7258.2
28.240000000 7291.6
28.260000000 7404.7
28.280000000 7511.3
28.300000000 7612.9
28.320000000 7670.0
28.340000000 7686.0
28.360000000 7826.2
28.380000000 8023.7
28.400000000 8043.5
28.420000000 7915.9
28.440000000 8040.8
28.460000000 8207.7
28.480000000 8406.5
28.500000000 8593.3
28.520000000 8674.7
28.540000000 8882.1
28.560000000 8981.4
28.580000000 9084.9
28.600000000 9377.4
28.620000000 9705.8
28.640000000 9843.1
28.660000000 10081.0
28.680000000 10648.2
28.700000000 10807.3
28.720000000 11176.7
28.740000000 11695.1
28.760000000 12281.6
28.780000000 12599.2
28.800000000 13091.9
28.820000000 13717.0
28.840000000 14398.0
28.860000000 14889.2
28.880000000 15709.5
28.900000000 16473.6
28.920000000 17261.7
28.940000000 18454.3
28.960000000 19323.7
28.980000000 20288.6
29.000000000 21341.4
29.020000000 22406.1
29.040000000 23485.7
29.060000000 24517.2
29.080000000 25617.5
29.100000000 26884.8
29.120000000 27971.6
29.140000000 28634.6
29.160000000 29146.4
29.180000000 29625.9
29.200000000 29666.3
29.220000000 29276.5
29.240000000 28636.0
29.260000000 27765.8
29.280000000 26464.2
29.300000000 25279.2
29.320000000 23818.3
29.340000000 22185.2
29.360000000 20868.4
29.380000000 19509.5
29.400000000 18421.8
29.420000000 17498.8
29.440000000 16513.3
29.460000000 15860.8
29.480000000 15136.3
29.500000000 14378.0
29.520000000 13652.4
29.540000000 13381.2
29.560000000 13065.5
29.580000000 12651.6
29.600000000 12138.7
29.620000000 11831.7
29.640000000 11612.9
29.660000000 11403.2
29.680000000 11189.1
29.700000000 11056.6
29.720000000 10859.7
29.740000000 10656.3
29.760000000 10478.2
29.780000000 10374.6
29.800000000 10322.3
29.820000000 10192.1
29.840000000 10052.1
29.860000000 10045.3
29.880000000 9977.1
29.900000000 9813.8
29.920000000 9616.5
29.940000000 9457.0
29.960000000 9505.7
29.980000000 9487.7
30.000000000 9454.9
30.020000000 9442.0
30.040000000 9429.8
30.060000000 9389.6
30.080000000 9331.8
30.100000000 9291.2
30.120000000 9419.9
30.140000000 9476.1
30.160000000 9436.3
30.180000000 9360.5
30.200000000 9442.0
30.220000000 9566.8
30.240000000 9546.9
30.260000000 9482.9
30.280000000 9604.0
30.300000000 9633.9
30.320000000 9703.2
30.340000000 9798.9
30.360000000 9897.8
30.380000000 10056.2
30.400000000 10085.9
30.420000000 10138.9
30.440000000 10314.8
30.460000000 10451.2
30.480000000 10449.9
30.500000000 10579.2
30.520000000 10900.7
30.540000000 11063.7
30.560000000 11269.1
30.580000000 11412.8
30.600000000 11581.9
30.620000000 12143.2
30.640000000 12311.3
30.660000000 12540.5
30.680000000 12877.1
30.700000000 13273.9
30.720000000 13719.5
30.740000000 14165.7
30.760000000 14651.1
30.780000000 15225.6
30.800000000 16152.4
30.820000000 17297.3
30.840000000 18705.8
30.860000000 20418.7
30.880000000 22580.1
30.900000000 25589.3
30.920000000 28833.5
30.940000000 31847.8
30.960000000 33668.0
30.980000000 33699.5
31.000000000 33961.1
31.020000000 34769.7
31.040000000 35129.2
31.060000000 35468.0
31.080000000 36011.8
31.100000000 36646.0
31.120000000 37055.7
31.140000000 36771.6
31.160000000 35897.1
31.180000000 34560.8
31.200000000 32930.3
31.220000000 31330.7
31.240000000 29546.7
31.260000000 27719.4
31.280000000 25960.3
31.300000000 24100.4
31.320000000 22773.7
31.340000000 21737.0
31.360000000 20823.3
31.380000000 19784.5
31.400000000 18940.2
31.420000000 18336.5
31.440000000 17911.7
31.460000000 17384.7
31.480000000 17036.6
31.500000000 16545.5
31.520000000 15946.3
31.540000000 15447.4
31.560000000 15257.1
31.580000000 15042.0
31.600000000 14747.0
31.620000000 14338.8
31.640000000 14300.0
31.660000000 14233.7
31.680000000 14050.6
31.700000000 13700.7
31.720000000 13609.3
31.740000000 13436.4
31.760000000 13170.6
31.780000000 12881.3
31.800000000 13116.7
31.820000000 12968.9
31.840000000 12872.5
31.860000000 12917.6
31.880000000 12862.0
31.900000000 12700.9
31.920000000 12439.3
31.940000000 12136.6
31.960000000 11930.2
31.980000000 11827.8
32.000000000 11733.1
32.020000000 11581.2
32.040000000 11292.5
32.060000000 11026.9
32.080000000 10961.8
32.100000000 10964.1
32.120000000 10903.4
32.140000000 10809.7
32.160000000 10812.2
32.180000000 10782.3
32.200000000 10659.8
32.220000000 10587.5
32.240000000 10501.3
32.260000000 10483.2
32.280000000 10529.8
32.300000000 10497.0
32.320000000 10361.7
32.340000000 10256.2
32.360000000 10270.6
32.380000000 10558.5
32.400000000 10817.4
32.420000000 10995.3
32.440000000 11101.8
32.460000000 11161.2
32.480000000 10977.0
32.500000000 10666.2
32.520000000 10286.2
32.540000000 9895.2
32.560000000 9568.5
32.580000000 9226.5
32.600000000 8879.4
32.620000000 8568.9
32.640000000 8611.5
32.660000000 8539.3
32.680000000 8458.6
32.700000000 8395.3
32.720000000 8271.9
32.740000000 8308.2
32.760000000 8334.4
32.780000000 8287.6
32.800000000 8107.1
32.820000000 8062.3
32.840000000 7987.9
32.860000000 7862.7
32.880000000 7686.0
32.900000000 7719.2
32.920000000 7657.1
32.940000000 7569.8
32.960000000 7542.0
32.980000000 7355.4
33.000000000 7250.8
33.020000000 7191.1
33.040000000 7138.9
33.060000000 6979.7
33.080000000 7015.1
33.100000000 7053.5
33.120000000 7016.7
33.140000000 6923.8
33.160000000 6933.9
33.180000000 6934.8
33.200000000 6895.1
33.220000000 6807.5
33.240000000 6712.5
33.260000000 6701.5
33.280000000 6732.1
33.300000000 6706.2
33.320000000 6568.7
33.340000000 6557.4
33.360000000 6596.0
33.380000000 6583.7
33.400000000 6559.3
33.420000000 6446.5
33.440000000 6391.7
33.460000000 6472.9
33.480000000 6349.5
33.500000000 6386.6
33.520000000 6444.2
33.540000000 6449.9
33.560000000 6360.0
33.580000000 6307.1
33.600000000 6264.5
33.620000000 6251.2
33.640000000 6349.5
33.660000000 6217.1
33.680000000 6209.9
33.700000000 6277.7
33.720000000 6222.1
33.740000000 6174.4
33.760000000 6175.2
33.780000000 6217.0
33.800000000 6285.5
33.820000000 6165.1
33.840000000 6082.7
33.860000000 6044.6
33.880000000 6052.9
33.900000000 6082.6
33.920000000 6044.2
33.940000000 5968.8
33.960000000 5901.5
33.980000000 6016.5
34.000000000 5994.6
34.020000000 5994.3
34.040000000 6025.2
34.060000000 5961.9
34.080000000 5984.0
34.100000000 5948.6
34.120000000 5866.6
34.140000000 5808.8
34.160000000 5945.3
34.180000000 6020.5
34.200000000 6033.5
34.220000000 6009.1
34.240000000 5880.8
34.260000000 5846.2
34.280000000 5879.9
34.300000000 5947.7
34.320000000 5889.8
34.340000000 5920.3
34.360000000 5916.6
34.380000000 5845.0
34.400000000 5904.4
34.420000000 5877.4
34.440000000 5842.5
34.460000000 5821.3
34.480000000 5800.8
34.500000000 5810.5
34.520000000 5821.6
34.540000000 5805.5
34.560000000 5711.9
34.580000000 5825.0
34.600000000 5837.6
34.620000000 5790.4
34.640000000 5775.2
34.660000000 5811.1
34.680000000 5869.8
34.700000000 5862.8
34.720000000 5734.5
34.740000000 5869.3
34.760000000 5793.0
34.780000000 5733.0
34.800000000 5795.8
34.820000000 5830.0
34.840000000 5764.8
34.860000000 5733.8
34.880000000 5756.7
34.900000000 5731.6
34.920000000 5799.2
34.940000000 5766.5
34.960000000 5708.4
34.980000000 5887.4
35.000000000 5821.6
35.020000000 5808.7
35.040000000 5812.2
35.060000000 5737.6
35.080000000 5755.4
35.100000000 5759.5
35.120000000 5726.6
35.140000000 5648.6
35.160000000 5762.8
35.180000000 5750.8
35.200000000 5722.6
35.220000000 5737.7
35.240000000 5744.5
35.260000000 5603.2
35.280000000 5554.7
35.300000000 5627.0
35.320000000 5565.3
35.340000000 5607.7
35.360000000 5692.7
35.380000000 5743.6
35.400000000 5602.7
35.420000000 5663.4
35.440000000 5732.8
35.460000000 5772.9
35.480000000 5758.4
35.500000000 5770.6
35.520000000 5771.5
35.540000000 5750.9
35.560000000 5702.7
35.580000000 5692.0
35.600000000 5640.8
35.620000000 5610.3
35.640000000 5637.9
35.660000000 5712.5
35.680000000 5712.4
35.700000000 5683.9
35.720000000 5651.1
35.740000000 5638.9
35.760000000 5730.5
35.780000000 5817.5
35.800000000 5865.2
35.820000000 5847.7
35.840000000 5781.5
35.860000000 5692.4
35.880000000 5643.9
35.900000000 5734.6
35.920000000 5801.8
35.940000000 5848.7
35.960000000 5863.5
35.980000000 5838.2
36.000000000 5935.0
36.020000000 5996.0
36.040000000 6035.5
36.060000000 6049.2
36.080000000 5896.9
36.100000000 5925.4
36.120000000 5977.7
36.140000000 6020.8
36.160000000 6219.6
36.180000000 6243.5
36.200000000 6226.1
36.220000000 6229.3
36.240000000 6332.9
36.260000000 6334.5
36.280000000 6307.0
36.300000000 6313.8
36.320000000 6447.8
36.340000000 6499.0
36.360000000 6601.9
36.380000000 6713.2
36.400000000 6778.1
36.420000000 6852.0
36.440000000 6781.5
36.460000000 6741.0
36.480000000 6837.6
36.500000000 6858.9
36.520000000 6928.5
36.540000000 7037.0
36.560000000 7155.1
36.580000000 7148.2
36.600000000 7087.4
36.620000000 7144.5
36.640000000 7287.9
36.660000000 7277.2
36.680000000 7384.4
36.700000000 7377.4
36.720000000 7313.4
36.740000000 7365.2
36.760000000 7364.4
36.780000000 7479.5
36.800000000 7502.4
36.820000000 7182.5
36.840000000 7108.7
36.860000000 7114.5
36.880000000 7039.2
36.900000000 6778.8
36.920000000 6583.1
36.940000000 6459.2
36.960000000 6320.0
36.980000000 6155.2
37.000000000 6149.1
37.020000000 6041.8
37.040000000 5944.5
37.060000000 5877.0
37.080000000 5797.8
37.100000000 5709.9
37.120000000 5703.2
37.140000000 5742.4
37.160000000 5727.9
37.180000000 5722.7
37.200000000 5717.2
37.220000000 5707.3
37.240000000 5689.0
37.260000000 5640.4
37.280000000 5579.1
37.300000000 5540.1
37.320000000 5545.0
37.340000000 5493.2
37.360000000 5434.0
37.380000000 5436.6
37.400000000 5501.5
37.420000000 5405.6
37.440000000 5345.2
37.460000000 5347.2
37.480000000 5379.7
37.500000000 5300.5
37.520000000 5368.6
37.540000000 5244.7
37.560000000 5048.0
37.580000000 5163.7
37.600000000 5137.4
37.620000000 5083.6
37.640000000 5092.0
37.660000000 5267.1
37.680000000 5165.0
37.700000000 5149.5
37.720000000 5155.7
37.740000000 5123.2
37.760000000 5066.8
37.780000000 5114.9
37.800000000 5110.4
37.820000000 4992.5
37.840000000 4943.0
37.860000000 4997.4
37.880000000 5058.2
37.900000000 5076.8
37.920000000 4994.6
37.940000000 4946.4
37.960000000 4924.1
37.980000000 4920.4
38.000000000 4921.9
38.020000000 4807.1
38.040000000 4854.2
38.060000000 4955.3
38.080000000 4918.7
38.100000000 4904.6
38.120000000 4919.8
38.140000000 4965.2
38.160000000 5029.9
38.180000000 4885.2
38.200000000 4856.0
38.220000000 4804.2
38.240000000 4680.4
38.260000000 4732.9
38.280000000 4781.3
38.300000000 4804.2
38.320000000 4799.4
38.340000000 4789.5
38.360000000 4804.8
38.380000000 4796.8
38.400000000 4754.4
38.420000000 4675.9
38.440000000 4944.6
38.460000000 4998.1
38.480000000 4890.9
38.500000000 4799.5
38.520000000 4937.0
38.540000000 5015.6
38.560000000 4979.6
38.580000000 4799.5
38.600000000 4874.9
38.620000000 4840.6
38.640000000 4806.8
38.660000000 4838.3
38.680000000 4894.7
38.700000000 4788.6
38.720000000 4753.6
38.740000000 4837.1
38.760000000 4843.9
38.780000000 4812.9
38.800000000 4807.5
38.820000000 4832.3
38.840000000 4861.2
38.860000000 4802.1
38.880000000 4758.3
38.900000000 4742.0
38.920000000 4752.6
38.940000000 4732.4
38.960000000 4706.2
38.980000000 4703.7
39.000000000 4750.6
39.020000000 4695.0
39.040000000 4676.3
39.060000000 4697.4
39.080000000 4742.2
39.100000000 4639.4
39.120000000 4656.6
39.140000000 4694.5
39.160000000 4704.6
39.180000000 4654.4
39.200000000 4730.5
39.220000000 4756.4
39.240000000 4710.9
39.260000000 4657.6
39.280000000 4628.8
39.300000000 4597.6
39.320000000 4578.8
39.340000000 4603.9
39.360000000 4727.3
39.380000000 4733.9
39.400000000 4684.7
39.420000000 4658.6
39.440000000 4574.8
39.460000000 4560.7
39.480000000 4570.3
39.500000000 4564.2
39.520000000 4476.6
39.540000000 4517.1
39.560000000 4553.1
39.580000000 4533.8
39.600000000 4503.3
39.620000000 4623.7
39.640000000 4639.5
39.660000000 4550.3
39.680000000 4561.7
39.700000000 4513.7
39.720000000 4511.8
39.740000000 4543.2
39.760000000 4555.4
39.780000000 4640.4
39.800000000 4638.2
39.820000000 4581.9
39.840000000 4523.0
39.860000000 4526.1
39.880000000 4534.9
39.900000000 4561.2
39.920000000 4606.3
39.940000000 4581.9
39.960000000 4592.7
39.980000000 4625.2
40.000000000 4657.2
40.020000000 4597.0
40.040000000 4526.9
40.060000000 4592.7
40.080000000 4738.9
40.100000000 4649.0
40.120000000 4589.2
40.140000000 4576.2
40.160000000 4608.8
40.180000000 4679.7
40.200000000 4719.7
40.220000000 4677.3
40.240000000 4636.9
40.260000000 4707.0
40.280000000 4721.5
40.300000000 4743.8
40.320000000 4778.8
40.340000000 4822.7
40.360000000 4768.7
40.380000000 4759.0
40.400000000 4760.3
40.420000000 4761.3
40.440000000 4796.3
40.460000000 4798.1
40.480000000 4802.9
40.500000000 4796.1
40.520000000 4687.2
40.540000000 4667.7
40.560000000 4684.9
40.580000000 4717.2
40.600000000 4738.5
40.620000000 4817.9
40.640000000 4830.7
40.660000000 4805.1
40.680000000 4792.1
40.700000000 4894.7
40.720000000 4923.9
40.740000000 4905.8
40.760000000 4861.9
40.780000000 4724.8
40.800000000 4784.1
40.820000000 4846.0
40.840000000 4824.4
40.860000000 4854.9
40.880000000 4789.7
40.900000000 4779.2
40.920000000 4850.7
40.940000000 4917.7
40.960000000 4758.5
40.980000000 4671.3
41.000000000 4684.3
41.020000000 4732.2
41.040000000 4611.0
41.060000000 4606.7
41.080000000 4664.6
41.100000000 4669.9
41.120000000 4690.2
41.140000000 4699.5
41.160000000 4694.1
41.180000000 4669.2
41.200000000 4581.6
41.220000000 4544.6
41.240000000 4578.5
41.260000000 4675.3
41.280000000 4687.5
41.300000000 4648.4
41.320000000 4660.0
41.340000000 4728.9
41.360000000 4734.2
41.380000000 4774.0
41.400000000 4807.3
41.420000000 4840.9
41.440000000 4910.9
41.460000000 4793.9
41.480000000 4824.6
41.500000000 4916.9
41.520000000 4888.7
41.540000000 4925.1
41.560000000 4970.2
41.580000000 4995.4
41.600000000 4979.4
41.620000000 5047.2
41.640000000 5075.3
41.660000000 5099.2
41.680000000 5147.2
41.700000000 5274.4
41.720000000 5296.0
41.740000000 5363.9
41.760000000 5523.2
41.780000000 5715.9
41.800000000 5829.6
41.820000000 5988.8
41.840000000 6130.1
41.860000000 6015.9
41.880000000 6175.2
41.900000000 6304.7
41.920000000 6360.7
41.940000000 6331.0
41.960000000 6269.0
41.980000000 6260.4
42.000000000 6238.3
42.020000000 6134.2
42.040000000 6064.8
42.060000000 5903.7
42.080000000 5730.1
42.100000000 5597.2
42.120000000 5508.1
42.140000000 5409.0
42.160000000 5242.9
42.180000000 5011.4
42.200000000 4832.4
42.220000000 4806.8
42.240000000 4733.8
42.260000000 4625.3
42.280000000 4650.4
42.300000000 4666.7
42.320000000 4581.5
42.340000000 4482.0
42.360000000 4537.6
42.380000000 4376.7
42.400000000 4370.0
42.420000000 4427.0
42.440000000 4429.7
42.460000000 4415.3
42.480000000 4413.1
42.500000000 4412.0
42.520000000 4413.8
42.540000000 4525.0
42.560000000 4607.6
42.580000000 4702.5
42.600000000 4820.7
42.620000000 4925.8
42.640000000 4816.8
42.660000000 4714.6
42.680000000 4658.5
42.700000000 4591.5
42.720000000 4436.6
42.740000000 4424.2
42.760000000 4472.3
42.780000000 4370.2
42.800000000 4309.4
42.820000000 4253.6
42.840000000 4194.6
42.860000000 4125.7
42.880000000 4096.8
42.900000000 4171.8
42.920000000 4212.4
42.940000000 4135.8
42.960000000 4204.4
42.980000000 4162.7
43.000000000 4086.1
43.020000000 4036.8
43.040000000 4164.8
43.060000000 4149.3
43.080000000 4107.1
43.100000000 4082.9
43.120000000 4113.3
43.140000000 4208.8
43.160000000 4216.5
43.180000000 4163.9
43.200000000 4151.7
43.220000000 4138.1
43.240000000 4120.1
43.260000000 4095.9
43.280000000 4064.0
43.300000000 4083.1
43.320000000 4126.2
43.340000000 4139.4
43.360000000 4089.9
43.380000000 4120.4
43.400000000 4098.9
43.420000000 4111.9
43.440000000 4169.2
43.460000000 4064.8
43.480000000 3948.7
43.500000000 3994.6
43.520000000 4178.4
43.540000000 4234.7
43.560000000 4159.7
43.580000000 4123.1
43.600000000 4132.6
43.620000000 4143.3
43.640000000 4120.6
43.660000000 4083.7
43.680000000 4045.1
43.700000000 4019.2
43.720000000 4067.4
43.740000000 4060.2
43.760000000 4051.9
43.780000000 4086.0
43.800000000 4105.1
43.820000000 4117.3
43.840000000 4147.8
43.860000000 4183.9
43.880000000 4052.1
43.900000000 4005.9
43.920000000 4007.9
43.940000000 4037.3
43.960000000 4061.7
43.980000000 4132.0
44.000000000 4136.0
44.020000000 4100.0
44.040000000 4129.7
44.060000000 4132.0
44.080000000 4152.9
44.100000000 4185.6
44.120000000 4214.5
44.140000000 4220.2
44.160000000 4153.0
44.180000000 4076.6
44.200000000 4047.6
44.220000000 4017.2
44.240000000 4018.5
44.260000000 4016.4
44.280000000 3993.9
44.300000000 3974.1
44.320000000 4060.0
44.340000000 4044.8
44.360000000 3924.9
44.380000000 3978.2
44.400000000 3999.7
44.420000000 4032.1
44.440000000 4049.1
44.460000000 3966.1
44.480000000 3954.8
44.500000000 3919.1
44.520000000 3886.3
44.540000000 3911.4
44.560000000 3936.5
44.580000000 3947.5
44.600000000 3929.2
44.620000000 3871.0
44.640000000 3842.8
44.660000000 3971.7
44.680000000 4009.8
44.700000000 3859.1
44.720000000 3961.9
44.740000000 3946.3
44.760000000 3858.1
44.780000000 3769.3
44.800000000 3916.3
44.820000000 3893.3
44.840000000 3888.7
44.860000000 3921.2
44.880000000 3931.1
44.900000000 3936.8
44.920000000 3974.3
44.940000000 3992.6
44.960000000 3905.8
44.980000000 3816.1
